"Freq [GHz]","AbsorbanceTM []"
30,0.0052781127528605
30.01,0.00527107061489585
30.02,0.00526393817239712
30.03,0.00525671727896393
30.04,0.00524940977084387
30.05,0.00524201746693009
30.06,0.00523454216894015
30.07,0.00522698566135926
30.08,0.00521934971162863
30.09,0.00521163607015618
30.1,0.00520384647041094
30.11,0.00519598262900367
30.12,0.00518804624573821
30.13,0.00518003900370356
30.14,0.00517196256937991
30.15,0.00516381859265369
30.16,0.00515560870694254
30.17,0.00514733452925686
30.18,0.0051389976602737
30.19,0.00513059968440888
30.2,0.00512214216991946
30.21,0.00511362666897641
30.22,0.0051050547177196
30.23,0.00509642783636211
30.24,0.00508774752924224
30.25,0.00507901528495391
30.26,0.00507023257636452
30.27,0.00506140086074103
30.28,0.00505252157981895
30.29,0.00504359615986449
30.3,0.00503462601177895
30.31,0.00502561253117062
30.32,0.00501655709843229
30.33,0.00500746107884198
30.34,0.00499832582260029
30.35,0.0049891526649668
30.36,0.00497994292631565
30.37,0.00497069791221127
30.38,0.00496141891348389
30.39,0.00495210720636763
30.4,0.00494276405250282
30.41,0.00493339069908427
30.42,0.00492398837889418
30.43,0.00491455831042475
30.44,0.00490510169796321
30.45,0.00489561973162422
30.46,0.00488611358746904
30.47,0.00487658442761663
30.48,0.00486703340025807
30.49,0.00485746163981882
30.5,0.00484787026696198
30.51,0.00483826038874158
30.52,0.00482863309863557
30.53,0.00481898947666215
30.54,0.00480933058944344
30.55,0.00479965749031341
30.56,0.00478997121937197
30.57,0.00478027280356175
30.58,0.00477056325681857
30.59,0.00476084358006712
30.6,0.00475111476137469
30.61,0.00474137777597172
30.62,0.00473163358641249
30.63,0.00472188314257604
30.64,0.00471212738180382
30.65,0.00470236722898665
30.66,0.00469260359659662
30.67,0.00468283738482411
30.68,0.00467306948163149
30.69,0.00466330076286015
30.7,0.00465353209227626
30.71,0.00464376432168601
30.72,0.00463399829102207
30.73,0.00462423482839613
30.74,0.00461447475018795
30.75,0.00460471886118219
30.76,0.00459496795454073
30.77,0.00458522281201368
30.78,0.00457548420393072
30.79,0.00456575288930217
30.8,0.00455602961593016
30.81,0.00454631512046344
30.82,0.00453661012847573
30.83,0.00452691535457994
30.84,0.00451723150247008
30.85,0.0045075592650281
30.86,0.00449789932438116
30.87,0.00448825235202388
30.88,0.00447861900885382
30.89,0.00446899994526828
30.9,0.00445939580127319
30.91,0.00444980720651134
30.92,0.00444023478038769
30.93,0.00443067913210282
30.94,0.00442114086079948
30.95,0.00441162055557154
30.96,0.00440211879558694
30.97,0.00439263615015695
30.98,0.00438317317880754
30.99,0.00437373043135936
31,0.00436430844800739
31.01,0.00435490775941616
31.02,0.00434552888678041
31.03,0.0043361723418831
31.04,0.00432683862721417
31.05,0.00431752823603659
31.06,0.00430824165242549
31.07,0.00429897935141499
31.08,0.00428974179898767
31.09,0.00428052945224022
31.1,0.00427134275939045
31.11,0.00426218215989438
31.12,0.00425304808448779
31.13,0.00424394095531477
31.14,0.00423486118593253
31.15,0.00422580918144289
31.16,0.00421678533853986
31.17,0.00420779004558747
31.18,0.00419882368272129
31.19,0.0041898866218526
31.2,0.00418097922682636
31.21,0.00417210185343164
31.22,0.00416325484950897
31.23,0.00415443855501529
31.24,0.00414565330206784
31.25,0.00413689941507756
31.26,0.00412817721074876
31.27,0.0041194869982154
31.28,0.00411082907906313
31.29,0.00410220374742709
31.3,0.00409361129004915
31.31,0.00408505198637577
31.32,0.0040765261085689
31.33,0.004068033921654
31.34,0.00405957568352244
31.35,0.00405115164503778
31.36,0.00404276205009013
31.37,0.00403440713566139
31.38,0.00402608713190622
31.39,0.0040178022622317
31.4,0.00400955274332238
31.41,0.00400133878523068
31.42,0.00399316059147814
31.43,0.00398501835904685
31.44,0.00397691227851926
31.45,0.00396884253410124
31.46,0.00396080930369902
31.47,0.00395281275899029
31.48,0.0039448530654812
31.49,0.00393693038258625
31.5,0.00392904486365653
31.51,0.00392119665609136
31.52,0.00391338590135293
31.53,0.00390561273510281
31.54,0.00389787728715485
31.55,0.00389017968166172
31.56,0.00388252003706924
31.57,0.00387489846624944
31.58,0.00386731507653715
31.59,0.00385976996980231
31.6,0.00385226324248189
31.61,0.00384479498567603
31.62,0.00383736528518397
31.63,0.00382997422159193
31.64,0.00382262187028837
31.65,0.00381530830157006
31.66,0.00380803358068671
31.67,0.00380079776786968
31.68,0.00379360091844327
31.69,0.00378644308283538
31.7,0.0037793243066736
31.71,0.00377224463080295
31.72,0.00376520409138725
31.73,0.00375820271992711
31.74,0.00375124054334464
31.75,0.00374431758401117
31.76,0.00373743385984238
31.77,0.00373058938431414
31.78,0.00372378416654795
31.79,0.00371701821135484
31.8,0.00371029151926205
31.81,0.00370360408663339
31.82,0.00369695590565389
31.83,0.00369034696443216
31.84,0.00368377724701185
31.85,0.00367724673346237
31.86,0.00367075539992856
31.87,0.00366430321864697
31.88,0.00365789015804441
31.89,0.00365151618274273
31.9,0.00364518125366331
31.91,0.00363888532801759
31.92,0.00363262835941536
31.93,0.00362641029787958
31.94,0.00362023108989995
31.95,0.00361409067849816
31.96,0.00360798900326842
31.97,0.00360192600041453
31.98,0.00359590160282042
31.99,0.00358991574008849
32,0.00358396833856833
32.01,0.00357805932146615
32.02,0.0035721886088137
32.03,0.00356635611753309
32.04,0.00356056176156816
32.05,0.00355480545178843
32.06,0.00354908709616231
32.07,0.00354340659973751
32.08,0.00353776386470572
32.09,0.00353215879041124
32.1,0.00352659127348787
32.11,0.00352106120777329
32.12,0.00351556848447909
32.13,0.00351011299214909
32.14,0.00350469461673775
32.15,0.00349931324164265
32.16,0.00349396874778585
32.17,0.00348866101356549
32.18,0.00348338991500863
32.19,0.00347815532574358
32.2,0.00347295711703632
32.21,0.00346779515788376
32.22,0.00346266931501882
32.23,0.00345757945295044
32.24,0.00345252543400487
32.25,0.00344750711839337
32.26,0.00344252436422099
32.27,0.00343757702752456
32.28,0.00343266496233163
32.29,0.00342778802070809
32.3,0.00342294605274551
32.31,0.0034181389066642
32.32,0.00341336642880741
32.33,0.00340862846369405
32.34,0.00340392485405794
32.35,0.00339925544086317
32.36,0.00339462006339197
32.37,0.00339001855922161
32.38,0.00338545076429975
32.39,0.00338091651296479
32.4,0.00337641563798285
32.41,0.00337194797059293
32.42,0.00336751334052798
32.43,0.00336311157604452
32.44,0.00335874250398982
32.45,0.00335440594981229
32.46,0.00335010173757588
32.47,0.0033458296900376
32.48,0.00334158962865327
32.49,0.00333738137361517
32.5,0.00333320474387278
32.51,0.00332905955720875
32.52,0.00332494563020325
32.53,0.00332086277834265
32.54,0.0033168108159739
32.55,0.00331278955639513
32.56,0.0033087988118623
32.57,0.00330483839361873
32.58,0.0033009081119364
32.59,0.00329700777612862
32.6,0.00329313719461544
32.61,0.00328929617488838
32.62,0.00328548452361521
32.63,0.00328170204662037
32.64,0.00327794854892727
32.65,0.00327422383479381
32.66,0.00327052770773284
32.67,0.00326685997052678
32.68,0.00326322042529092
32.69,0.00325960887346766
32.7,0.00325602511588674
32.71,0.00325246895273923
32.72,0.00324894018365895
32.73,0.00324543860772242
32.74,0.00324196402347843
32.75,0.00323851622898363
32.76,0.00323509502180497
32.77,0.00323170019907115
32.78,0.00322833155749502
32.79,0.0032249888933652
32.8,0.00322167200263357
32.81,0.00321838068085389
32.82,0.00321511472330582
32.83,0.00321187392492739
32.84,0.0032086580803975
32.85,0.00320546698414192
32.86,0.00320230043035397
32.87,0.0031991582130233
32.88,0.0031960401259401
32.89,0.00319294596273123
32.9,0.00318987551691396
32.91,0.00318682858186026
32.92,0.00318380495084347
32.93,0.00318080441708346
32.94,0.00317782677372036
32.95,0.00317487181388376
32.96,0.00317193933069582
32.97,0.00316902911725447
32.98,0.00316614096672729
32.99,0.00316327467230326
33,0.00316043002725908
33.01,0.00315760682494537
33.02,0.00315480485883923
33.03,0.003152023922537
33.04,0.00314926380977554
33.05,0.0031465243144857
33.06,0.00314380523073743
33.07,0.00314110635284803
33.08,0.00313842747533166
33.09,0.0031357683929526
33.1,0.00313312890071871
33.11,0.0031305087939425
33.12,0.00312790786820005
33.13,0.00312532591937553
33.14,0.00312276274370682
33.15,0.00312021813774621
33.16,0.00311769189842825
33.17,0.00311518382305487
33.18,0.00311269370930911
33.19,0.00311022135527017
33.2,0.00310776655950007
33.21,0.0031053291209413
33.22,0.00310290883899822
33.23,0.00310050551357588
33.24,0.00309811894502687
33.25,0.00309574893422948
33.26,0.00309339528256414
33.27,0.00309105779192942
33.28,0.003088736264789
33.29,0.00308643050413571
33.3,0.00308414031354598
33.31,0.00308186549717271
33.32,0.00307960585978062
33.33,0.00307736120672497
33.34,0.0030751313439914
33.35,0.0030729160781876
33.36,0.00307071521658675
33.37,0.00306852856712714
33.38,0.00306635593837834
33.39,0.00306419713963824
33.4,0.00306205198088416
33.41,0.00305992027279334
33.42,0.00305780182676385
33.43,0.00305569645493364
33.44,0.00305360397018017
33.45,0.00305152418613142
33.46,0.00304945691715697
33.47,0.00304740197842968
33.48,0.00304535918590321
33.49,0.00304332835629584
33.5,0.00304130930717073
33.51,0.00303930185688328
33.52,0.0030373058245905
33.53,0.00303532103033544
33.54,0.0030333472949583
33.55,0.00303138444018736
33.56,0.003029432288572
33.57,0.00302749066355601
33.58,0.00302555938946281
33.59,0.0030236382914941
33.6,0.00302172719574367
33.61,0.00301982592923034
33.62,0.00301793431986797
33.63,0.00301605219649015
33.64,0.00301417938885828
33.65,0.00301231572767557
33.66,0.00301046104458169
33.67,0.00300861517218276
33.68,0.00300677794400916
33.69,0.0030049491945926
33.7,0.00300312875940523
33.71,0.00300131647491875
33.72,0.00299951217857708
33.73,0.00299771570882601
33.74,0.00299592690509543
33.75,0.00299414560782318
33.76,0.00299237165846733
33.77,0.00299060489949654
33.78,0.00298884517437947
33.79,0.00298709232764516
33.8,0.00298534620482882
33.81,0.00298360665251152
33.82,0.00298187351832457
33.83,0.00298014665094182
33.84,0.00297842590008612
33.85,0.00297671111652686
33.86,0.00297500215211832
33.87,0.00297329885977016
33.88,0.00297160109345984
33.89,0.00296990870825542
33.9,0.00296822156027643
33.91,0.00296653950673997
33.92,0.00296486240597371
33.93,0.0029631901173458
33.94,0.00296152250135695
33.95,0.00295985941960197
33.96,0.00295820073475506
33.97,0.00295654631061182
33.98,0.00295489601209009
33.99,0.00295324970517707
34,0.00295160725700283
34.01,0.00294996853581919
34.02,0.00294833341096912
34.03,0.00294670175293588
34.04,0.00294507343333839
34.05,0.00294344832488203
34.06,0.00294182630143125
34.07,0.00294020723798782
34.08,0.00293859101064542
34.09,0.00293697749667876
34.1,0.00293536657447024
34.11,0.00293375812353125
34.12,0.00293215202454411
34.13,0.00293054815930838
34.14,0.00292894641076202
34.15,0.00292734666299665
34.16,0.00292574880125862
34.17,0.00292415271189339
34.18,0.00292255828245125
34.19,0.00292096540158582
34.2,0.00291937395911335
34.21,0.00291778384600638
34.22,0.00291619495436335
34.23,0.00291460717745362
34.24,0.00291302040966368
34.25,0.00291143454657949
34.26,0.00290984948488393
34.27,0.00290826512242792
34.28,0.00290668135822847
34.29,0.00290509809243933
34.3,0.00290351522634591
34.31,0.00290193266239958
34.32,0.00290035030418989
34.33,0.00289876805647105
34.34,0.00289718582511911
34.35,0.00289560351717211
34.36,0.00289402104079972
34.37,0.00289243830532582
34.38,0.00289085522122778
34.39,0.00288927170008868
34.4,0.00288768765465941
34.41,0.00288610299883407
34.42,0.00288451764763487
34.43,0.00288293151720198
34.44,0.00288134452484667
34.45,0.00287975658897854
34.46,0.0028781676291757
34.47,0.00287657756611459
34.48,0.00287498632160244
34.49,0.00287339381860363
34.5,0.00287179998115661
34.51,0.00287020473446886
34.52,0.00286860800483479
34.53,0.00286700971968767
34.54,0.00286540980756433
34.55,0.00286380819812426
34.56,0.0028622048221234
34.57,0.00286059961144702
34.58,0.00285899249905996
34.59,0.00285738341905095
34.6,0.00285577230659739
34.61,0.00285415909798559
34.62,0.00285254373058097
34.63,0.00285092614285221
34.64,0.00284930627435764
34.65,0.00284768406573288
34.66,0.00284605945869554
34.67,0.00284443239606469
34.68,0.00284280282170091
34.69,0.00284117068057299
34.7,0.00283953591868746
34.71,0.00283789848314298
34.72,0.00283625832209378
34.73,0.00283461538472984
34.74,0.00283296962133495
34.75,0.00283132098323347
34.76,0.00282966942277052
34.77,0.00282801489336792
34.78,0.00282635734947811
34.79,0.00282469674660046
34.8,0.00282303304124165
34.81,0.00282136619095752
34.82,0.0028196961543252
34.83,0.00281802289094157
34.84,0.00281634636143668
34.85,0.00281466652742057
34.86,0.00281298335152624
34.87,0.00281129679740666
34.88,0.00280960682969922
34.89,0.00280791341402786
34.9,0.00280621651703861
34.91,0.00280451610633592
34.92,0.00280281215051481
34.93,0.00280110461915295
34.94,0.0027993934827909
34.95,0.00279767871295522
34.96,0.00279596028210993
34.97,0.0027942381637065
34.98,0.00279251233212885
34.99,0.00279078276272982
35,0.00278904943178204
35.01,0.00278731231652152
35.02,0.00278557139510494
35.03,0.00278382664662147
35.04,0.00278207805109609
35.05,0.00278032558945451
35.06,0.0027785692435498
35.07,0.00277680899615285
35.08,0.00277504483091517
35.09,0.00277327673240657
35.1,0.00277150468607323
35.11,0.00276972867827618
35.12,0.00276794869624308
35.13,0.00276616472808178
35.14,0.00276437676277441
35.15,0.00276258479015845
35.16,0.00276078880096176
35.17,0.0027589887867443
35.18,0.00275718473991915
35.19,0.00275537665376624
35.2,0.00275356452237074
35.21,0.00275174834069403
35.22,0.00274992810448549
35.23,0.00274810381034862
35.24,0.00274627545568518
35.25,0.00274444303871602
35.26,0.00274260655848113
35.27,0.00274076601480122
35.28,0.00273892140830312
35.29,0.00273707274040669
35.3,0.00273522001329429
35.31,0.00273336322995088
35.32,0.00273150239411724
35.33,0.00272963751030575
35.34,0.00272776858378554
35.35,0.00272589562060499
35.36,0.00272401862752003
35.37,0.00272213761204754
35.38,0.00272025258245601
35.39,0.00271836354771471
35.4,0.00271647051754098
35.41,0.00271457350237414
35.42,0.00271267251333407
35.43,0.00271076756228728
35.44,0.00270885866177395
35.45,0.00270694582503461
35.46,0.00270502906600156
35.47,0.00270310839929711
35.48,0.00270118384020268
35.49,0.00269925540468907
35.5,0.00269732310937276
35.51,0.00269538697153182
35.52,0.00269344700911767
35.53,0.0026915032406879
35.54,0.00268955568549001
35.55,0.00268760436335236
35.56,0.00268564929477211
35.57,0.00268369050083628
35.58,0.00268172800328681
35.59,0.00267976182442198
35.6,0.0026777919871892
35.61,0.00267581851509124
35.62,0.00267384143227578
35.63,0.00267186076341008
35.64,0.00266987653378614
35.65,0.00266788876924817
35.66,0.00266589749621537
35.67,0.00266390274163586
35.68,0.00266190453306625
35.69,0.002659902898554
35.7,0.002657897866713
35.71,0.00265588946671125
35.72,0.0026538777281897
35.73,0.00265186268136341
35.74,0.00264984435692406
35.75,0.00264782278611009
35.76,0.00264579800063591
35.77,0.00264377003271654
35.78,0.00264173891505581
35.79,0.00263970468085895
35.8,0.00263766736377757
35.81,0.00263562699797704
35.82,0.00263358361804578
35.83,0.00263153725904519
35.84,0.00262948795650697
35.85,0.0026274357464029
35.86,0.00262538066511497
35.87,0.00262332274949584
35.88,0.00262126203682111
35.89,0.00261919856475645
35.9,0.00261713237143057
35.91,0.00261506349535345
35.92,0.0026129919754273
35.93,0.00261091785098633
35.94,0.00260884116170734
35.95,0.00260676194772069
35.96,0.00260468024945792
35.97,0.00260259610777769
35.98,0.00260050956387814
35.99,0.00259842065933003
36,0.00259632943606092
36.01,0.00259423593633545
36.02,0.00259214020274245
36.03,0.00259004227825665
36.04,0.00258794220614167
36.05,0.00258584003000051
36.06,0.00258373579373494
36.07,0.00258162954158958
36.08,0.00257952131809369
36.09,0.00257741116806653
36.1,0.00257529913665044
36.11,0.00257318526925432
36.12,0.00257106961156084
36.13,0.00256895220954956
36.14,0.00256683310946193
36.15,0.00256471235780498
36.16,0.00256259000132253
36.17,0.00256046608703597
36.18,0.00255834066220451
36.19,0.00255621377432691
36.2,0.00255408547112468
36.21,0.00255195580057488
36.22,0.00254982481084665
36.23,0.00254769255034304
36.24,0.00254555906768661
36.25,0.00254342441166433
36.26,0.0025412886313132
36.27,0.00253915177584185
36.28,0.00253701389464045
36.29,0.00253487503728977
36.3,0.00253273525354092
36.31,0.00253059459331917
36.32,0.00252845310672101
36.33,0.00252631084400035
36.34,0.00252416785554999
36.35,0.00252202419194614
36.36,0.0025198799038546
36.37,0.00251773504213404
36.38,0.00251558965774035
36.39,0.00251344380175789
36.4,0.00251129752541945
36.41,0.00250915088003834
36.42,0.00250700391705683
36.43,0.00250485668801848
36.44,0.00250270924457519
36.45,0.00250056163845669
36.46,0.00249841392148431
36.47,0.00249626614558285
36.48,0.00249411836272173
36.49,0.00249197062496187
36.5,0.00248982298444589
36.51,0.00248767549335915
36.52,0.002485528203932
36.53,0.00248338116848357
36.54,0.00248123443936121
36.55,0.0024790880689427
36.56,0.0024769421096561
36.57,0.00247479661396344
36.58,0.00247265163433563
36.59,0.00247050722328568
36.6,0.00246836343334544
36.61,0.00246622031702981
36.62,0.00246407792689129
36.63,0.00246193631548119
36.64,0.00245979553531173
36.65,0.00245765563893863
36.66,0.002455516678876
36.67,0.00245337870763007
36.68,0.00245124177766753
36.69,0.00244910594146086
36.7,0.00244697125141413
36.71,0.00244483775991766
36.72,0.00244270551932457
36.73,0.00244057458192126
36.74,0.00243844499996404
36.75,0.00243631682566792
36.76,0.00243419011113555
36.77,0.0024320649084556
36.78,0.00242994126963114
36.79,0.0024278192466014
36.8,0.00242569889120414
36.81,0.00242358025523715
36.82,0.00242146339036786
36.83,0.00241934834820978
36.84,0.00241723518025339
36.85,0.00241512393791443
36.86,0.00241301467249744
36.87,0.00241090743518912
36.88,0.00240880227708651
36.89,0.00240669924916137
36.9,0.00240459840225538
36.91,0.00240249978709972
36.92,0.00240040345429904
36.93,0.00239830945431685
36.94,0.00239621783750121
36.95,0.00239412865403366
36.96,0.00239204195396991
36.97,0.00238995778722007
36.98,0.00238787620352388
36.99,0.00238579725249788
37,0.00238372098358786
37.01,0.00238164744604807
37.02,0.00237957668900957
37.03,0.00237750876141907
37.04,0.00237544371203668
37.05,0.00237338158945843
37.06,0.00237132244210303
37.07,0.00236926631819645
37.08,0.00236721326578049
37.09,0.00236516333270897
37.1,0.00236311656664445
37.11,0.00236107301504007
37.12,0.00235903272514981
37.13,0.00235699574403425
37.14,0.00235496211853459
37.15,0.00235293189527908
37.16,0.00235090512071312
37.17,0.00234888184100213
37.18,0.00234686210215784
37.19,0.002344845949937
37.2,0.00234283342985198
37.21,0.00234082458722074
37.22,0.00233881946710346
37.23,0.00233681811432651
37.24,0.00233482057349521
37.25,0.00233282688896574
37.26,0.0023308371048234
37.27,0.00232885126493687
37.28,0.00232686941291504
37.29,0.00232489159210947
37.3,0.00232291784562
37.31,0.00232094821628315
37.32,0.00231898274667852
37.33,0.00231702147910939
37.34,0.00231506445563323
37.35,0.00231311171802451
37.36,0.00231116330778258
37.37,0.0023092192661367
37.38,0.00230727963404165
37.39,0.00230534445217401
37.4,0.00230341376091103
37.41,0.00230148760037285
37.42,0.0022995660103714
37.43,0.00229764903043894
37.44,0.00229573669980476
37.45,0.00229382905742903
37.46,0.00229192614194673
37.47,0.00229002799172429
37.48,0.00228813464480204
37.49,0.00228624613893114
37.5,0.00228436251154251
37.51,0.00228248379978535
37.52,0.00228061004049163
37.53,0.00227874127017724
37.54,0.00227687752504446
37.55,0.00227501884098158
37.56,0.00227316525355803
37.57,0.0022713167980456
37.58,0.00226947350938922
37.59,0.00226763542216235
37.6,0.00226580257070153
37.61,0.00226397498895026
37.62,0.00226215271055175
37.63,0.00226033576882056
37.64,0.00225852419672867
37.65,0.00225671802694238
37.66,0.00225491729176153
37.67,0.00225312202316696
37.68,0.0022513322528166
37.69,0.00224954801201604
37.7,0.002247769331718
37.71,0.00224599624256427
37.72,0.00224422877483343
37.73,0.00224246695847696
