"Freq [GHz]","AbsorbanceTM []"
30,0.00646445726148703
30.01,0.00647403564948279
30.02,0.00648348279166877
30.03,0.00649280142155384
30.04,0.00650199424365316
30.05,0.0065110639335878
30.06,0.00652001313813788
30.07,0.00652884447530611
30.08,0.0065375605344149
30.09,0.00654616387616513
30.1,0.0065546570327466
30.11,0.00656304250786377
30.12,0.00657132277690331
30.13,0.00657950028690635
30.14,0.00658757745677452
30.15,0.00659555667727008
30.16,0.00660344031113835
30.17,0.006611230693221
30.18,0.00661893013050319
30.19,0.00662654090224502
30.2,0.00663406526006494
30.21,0.00664150542804987
30.22,0.00664886360283734
30.23,0.00665614195371134
30.24,0.0066633426227628
30.25,0.00667046772489721
30.26,0.00667751934804162
30.27,0.00668449955319439
30.28,0.00669141037453547
30.29,0.00669825381956923
30.3,0.00670503186919991
30.31,0.00671174647787742
30.32,0.00671839957369169
30.33,0.0067249930585016
30.34,0.00673152880805494
30.35,0.00673800867207763
30.36,0.00674443447444406
30.37,0.00675080801327133
30.38,0.00675713106103115
30.39,0.00676340536470332
30.4,0.00676963264588148
30.41,0.00677581460091592
30.42,0.00678195290102024
30.43,0.00678804919243681
30.44,0.00679410509651657
30.45,0.00680012220991677
30.46,0.00680610210466115
30.47,0.0068120463283371
30.48,0.00681795640419813
30.49,0.00682383383132579
30.5,0.00682968008471574
30.51,0.00683549661548544
30.52,0.00684128485096602
30.53,0.00684704619485799
30.54,0.00685278202737805
30.55,0.00685849370539438
30.56,0.00686418256258114
30.57,0.00686984990954298
30.58,0.00687549703397983
30.59,0.00688112520083028
30.6,0.00688673565242837
30.61,0.00689232960860942
30.62,0.00689790826692527
30.63,0.00690347280273629
30.64,0.00690902436940144
30.65,0.00691456409839653
30.66,0.00692009309950892
30.67,0.00692561246093981
30.68,0.00693112324950251
30.69,0.00693662651076044
30.7,0.00694212326917587
30.71,0.00694761452827486
30.72,0.0069531012707913
30.73,0.00695858445885444
30.74,0.0069640650341054
30.75,0.00696954391788529
30.76,0.00697502201138978
30.77,0.00698050019582741
30.78,0.00698597933255973
30.79,0.00699146026329467
30.8,0.00699694381023663
30.81,0.00700243077622553
30.82,0.00700792194493349
30.83,0.00701341808100087
30.84,0.00701891993022552
30.85,0.00702442821969174
30.86,0.00702994365795506
30.87,0.00703546693523394
30.88,0.00704099872348674
30.89,0.00704653967669977
30.9,0.00705209043093391
30.91,0.00705765160458183
30.92,0.00706322379846469
30.93,0.00706880759604323
30.94,0.00707440356357536
30.95,0.00708001225026567
30.96,0.00708563418844621
30.97,0.00709126989373676
30.98,0.00709691986521732
30.99,0.00710258458559965
31,0.00710826452137547
31.01,0.00711396012299614
31.02,0.00711967182506712
31.03,0.00712540004645945
31.04,0.00713114519051605
31.05,0.00713690764520092
31.06,0.00714268778329596
31.07,0.00714848596253403
31.08,0.00715430252577631
31.09,0.00716013780121894
31.1,0.00716599210248259
31.11,0.00717186572884998
31.12,0.00717775896539807
31.13,0.00718367208319204
31.14,0.00718960533941559
31.15,0.00719555897757018
31.16,0.0072015332276455
31.17,0.00720752830622606
31.18,0.00721354441675925
31.19,0.00721958174963444
31.2,0.00722564048239205
31.21,0.00723172077988554
31.22,0.00723782279441143
31.23,0.00724394666596284
31.24,0.00725009252227871
31.25,0.0072562604791121
31.26,0.00726245064032782
31.27,0.00726866309809659
31.28,0.00727489793307434
31.29,0.00728115521450601
31.3,0.00728743500046225
31.31,0.00729373733797578
31.32,0.00730006226316915
31.33,0.0073064098014719
31.34,0.0073127799677567
31.35,0.00731917276650362
31.36,0.00732558819194362
31.37,0.00733202622825857
31.38,0.00733848684972449
31.39,0.00734497002086343
31.4,0.00735147569660222
31.41,0.00735800382244067
31.42,0.00736455433461369
31.43,0.00737112716025534
31.44,0.00737772221752586
31.45,0.0073843394157973
31.46,0.00739097865580518
31.47,0.00739763982980113
31.48,0.00740432282172265
31.49,0.00741102750730727
31.5,0.00741775375429254
31.51,0.00742450142255857
31.52,0.00743127036426161
31.53,0.00743806042401651
31.54,0.00744487143902728
31.55,0.00745170323923006
31.56,0.00745855564748632
31.57,0.00746542847969389
31.58,0.00747232154493416
31.59,0.0074792346456648
31.6,0.00748616757781839
31.61,0.00749312013097259
31.62,0.00750009208849023
31.63,0.00750708322769966
31.64,0.00751409331996222
31.65,0.00752112213091505
31.66,0.00752816942052037
31.67,0.007535234943297
31.68,0.00754231844839193
31.69,0.00754941967974454
31.7,0.00755653837626291
31.71,0.00756367427190141
31.72,0.00757082709585366
31.73,0.00757799657266078
31.74,0.00758518242236228
31.75,0.00759238436062804
31.76,0.00759960209888855
31.77,0.00760683534450102
31.78,0.00761408380082107
31.79,0.00762134716740182
31.8,0.0076286251401062
31.81,0.00763591741120928
31.82,0.00764322366955628
31.83,0.00765054360071638
31.84,0.00765787688705122
31.85,0.00766522320789031
31.86,0.0076725822396666
31.87,0.00767995365596352
31.88,0.00768733712775738
31.89,0.00769473232345452
31.9,0.0077021389090457
31.91,0.00770955654823913
31.92,0.00771698490256312
31.93,0.00772442363149295
31.94,0.00773187239255368
31.95,0.00773933084150302
31.96,0.00774679863235761
31.97,0.00775427541759155
31.98,0.00776176084819946
31.99,0.00776925457382716
32,0.0077767562429174
32.01,0.00778426550276989
32.02,0.00779178199967956
32.03,0.00779930537904439
32.04,0.00780683528550374
32.05,0.00781437136300522
32.06,0.00782191325492043
32.07,0.00782946060417289
32.08,0.00783701305335027
32.09,0.00784457024476581
32.1,0.00785213182061106
32.11,0.00785969742302517
32.12,0.00786726669421622
32.13,0.00787483927655963
32.14,0.00788241481269536
32.15,0.00788999294562498
32.16,0.00789757331880514
32.17,0.0079051555762597
32.18,0.00791273936268677
32.19,0.00792032432349732
32.2,0.00792791010496918
32.21,0.00793549635432977
32.22,0.00794308271980593
32.23,0.00795066885076967
32.24,0.0079582543978024
32.25,0.00796583901276671
32.26,0.00797342234892418
32.27,0.00798100406101043
32.28,0.00798858380533551
32.29,0.00799616123982616
32.3,0.0080037360241425
32.31,0.00801130781977299
32.32,0.0080188762900899
32.33,0.00802644110042239
32.34,0.00803400191815906
32.35,0.00804155841283538
32.36,0.00804911025617028
32.37,0.00805665712217496
32.38,0.00806419868721331
32.39,0.00807173463008226
32.4,0.00807926463210473
32.41,0.00808678837714372
32.42,0.00809430555173529
32.43,0.00810181584511072
32.44,0.00810931894930167
32.45,0.00811681455920077
32.46,0.00812430237260964
32.47,0.00813178209030718
32.48,0.00813925341612054
32.49,0.00814671605702189
32.5,0.00815416972310656
32.51,0.00816161412774663
32.52,0.00816904898760373
32.53,0.00817647402267352
32.54,0.00818388895638489
32.55,0.00819129351563119
32.56,0.00819868743082786
32.57,0.00820607043597854
32.58,0.00821344226871201
32.59,0.00822080267035563
32.6,0.00822815138597233
32.61,0.00823548816438591
32.62,0.00824281275831507
32.63,0.00825012492433097
32.64,0.00825742442293609
32.65,0.00826471101862447
32.66,0.0082719844799215
32.67,0.0082792445794273
32.68,0.00828649109383006
32.69,0.00829372380401083
32.7,0.0083009424950341
32.71,0.00830814695618387
32.72,0.00831533698105857
32.73,0.00832251236754955
32.74,0.00832967291790876
32.75,0.00833681843877487
32.76,0.00834394874121436
32.77,0.00835106364075744
32.78,0.00835816295741432
32.79,0.00836524651573078
32.8,0.00837231414481809
32.81,0.00837936567834674
32.82,0.0083864009546305
32.83,0.00839341981661301
32.84,0.00840042211190006
32.85,0.008407407692827
32.86,0.00841437641641585
32.87,0.00842132814446783
32.88,0.00842826274352593
32.89,0.00843518008493782
32.9,0.00844208004488745
32.91,0.008448962504357
32.92,0.00845582734921302
32.93,0.00846267447017812
32.94,0.00846950376287148
32.95,0.00847631512783709
32.96,0.00848310847051637
32.97,0.00848988370130532
32.98,0.0084966407355429
32.99,0.00850337949355906
33,0.00851009990063223
33.01,0.00851680188704163
33.02,0.008523485388089
33.03,0.00853015034404325
33.04,0.00853679670022245
33.05,0.00854342440698053
33.06,0.00855003341966387
33.07,0.00855662369869625
33.08,0.0085631952095272
33.09,0.00856974792265719
33.1,0.00857628181365111
33.11,0.00858279686312236
33.12,0.00858929305672673
33.13,0.00859577038518633
33.14,0.00860222884429673
33.15,0.00860866843489139
33.16,0.00861508916286746
33.17,0.00862149103917342
33.18,0.00862787407980836
33.19,0.00863423830580323
33.2,0.00864058374325571
33.21,0.00864691042328414
33.22,0.00865321838202926
33.23,0.00865950766067936
33.24,0.00866577830540238
33.25,0.00867203036739772
33.26,0.00867826390284954
33.27,0.00868447897292701
33.28,0.00869067564379189
33.29,0.00869685398654008
33.3,0.00870301407723328
33.31,0.00870915599687794
33.32,0.00871527983139231
33.33,0.00872138567161707
33.34,0.00872747361326831
33.35,0.00873354375696089
33.36,0.00873959620814946
33.37,0.00874563107714987
33.38,0.00875164847910292
33.39,0.00875764853393879
33.4,0.00876363136641012
33.41,0.00876959710600267
33.42,0.00877554588694718
33.43,0.00878147784825378
33.44,0.00878739313356947
33.45,0.00879329189127487
33.46,0.00879917427436583
33.47,0.00880504044050334
33.48,0.00881089055195272
33.49,0.00881672477555784
33.5,0.00882254328271759
33.51,0.00882834624938134
33.52,0.00883413385598952
33.53,0.00883990628746978
33.54,0.00884566373319018
33.55,0.00885140638695547
33.56,0.00885713444695713
33.57,0.00886284811575333
33.58,0.0088685476002337
33.59,0.00887423311157642
33.6,0.00887990486526857
33.61,0.00888556308100141
33.62,0.00889120798269871
33.63,0.00889683979844036
33.64,0.0089024587604567
33.65,0.00890806510509212
33.66,0.00891365907277419
33.67,0.00891924090793861
33.68,0.00892481085905017
33.69,0.00893036917854273
33.7,0.00893591612278177
33.71,0.00894145195201967
33.72,0.00894697693037594
33.73,0.0089524913257979
33.74,0.00895799541000619
33.75,0.00896348945846293
33.76,0.00896897375041517
33.77,0.00897444856865404
33.78,0.00897991419967259
33.79,0.00898537093356311
33.8,0.00899081906393817
33.81,0.00899625888793887
33.82,0.00900169070618251
33.83,0.00900711482268957
33.84,0.00901253154489545
33.85,0.00901794118355193
33.86,0.00902334405274463
33.87,0.00902874046981172
33.88,0.00903413075528881
33.89,0.00903951523291702
33.9,0.00904489422955779
33.91,0.00905026807515119
33.92,0.00905563710269219
33.93,0.00906100164818502
33.94,0.00906636205056432
33.95,0.00907171865171463
33.96,0.0090770717963512
33.97,0.00908242183202934
33.98,0.00908776910908016
33.99,0.00909311398057211
34,0.00909845680222698
34.01,0.00910379793245131
34.02,0.00910913773222455
34.03,0.00911447656504982
34.04,0.00911981479697521
34.05,0.00912515279646309
34.06,0.00913049093440255
34.07,0.0091358295840549
34.08,0.00914116912094798
34.09,0.00914650992292376
34.1,0.0091518523700167
34.11,0.00915719684444682
34.12,0.00916254373052305
34.13,0.00916789341466928
34.14,0.00917324628530836
34.15,0.00917860273285742
34.16,0.00918396314965553
34.17,0.00918932792991278
34.18,0.00919469746969803
34.19,0.00920007216685881
34.2,0.00920545242094617
34.21,0.00921083863324812
34.22,0.0092162312066435
34.23,0.00922163054565706
34.24,0.00922703705630845
34.25,0.00923245114613302
34.26,0.00923787322409375
34.27,0.00924330370057469
34.28,0.00924874298727474
34.29,0.0092541914972285
34.3,0.00925964964470483
34.31,0.00926511784514972
34.32,0.0092705965151898
34.33,0.00927608607255148
34.34,0.00928158693600145
34.35,0.00928709952532292
34.36,0.00929262426127142
34.37,0.00929816156548147
34.38,0.00930371186046952
34.39,0.00930927556955252
34.4,0.00931485311682068
34.41,0.00932044492707185
34.42,0.00932605142578924
34.43,0.00933167303904914
34.44,0.00933731019351336
34.45,0.00934296331637696
34.46,0.00934863283529053
34.47,0.00935431917835516
34.48,0.00936002277403514
34.49,0.00936574405114821
34.5,0.00937148343876926
34.51,0.00937724136624274
34.52,0.00938301826309174
34.53,0.00938881455897822
34.54,0.00939463068369106
34.55,0.00940046706704556
34.56,0.00940632413887232
34.57,0.00941220232896922
34.58,0.00941810206703697
34.59,0.00942402378265805
34.6,0.00942996790524653
34.61,0.00943593486396754
34.62,0.00944192508773656
34.63,0.00944793900517027
34.64,0.00945397704451723
34.65,0.0094600396336173
34.66,0.00946612719989948
34.67,0.00947224017026693
34.68,0.00947837897110881
34.69,0.00948454402826271
34.7,0.00949073576690151
34.71,0.0094969546115744
34.72,0.00950320098612878
34.73,0.0095094753136391
34.74,0.00951577801642789
34.75,0.00952210951597454
34.76,0.00952847023286629
34.77,0.00953486058682806
34.78,0.00954128099658569
34.79,0.0095477318799162
34.8,0.00955421365353282
34.81,0.00956072673308661
34.82,0.00956727153312953
34.83,0.00957384846704668
34.84,0.00958045794704299
34.85,0.00958710038410526
34.86,0.00959377618792767
34.87,0.0096004857669415
34.88,0.00960722952820037
34.89,0.00961400787739008
34.9,0.00962082121880703
34.91,0.00962766995526498
34.92,0.00963455448811323
34.93,0.00964147521715941
34.94,0.00964843254067393
34.95,0.00965542685533161
34.96,0.00966245855617176
34.97,0.00966952803658261
34.98,0.00967663568825494
34.99,0.00968378190115404
35,0.00969096706348105
35.01,0.00969819156166574
35.02,0.00970545578028015
35.03,0.00971276010207134
35.04,0.00972010490788733
35.05,0.00972749057665068
35.06,0.00973491748535715
35.07,0.00974238600902366
35.08,0.00974989652063529
35.09,0.00975744939118173
35.1,0.00976504498954101
35.11,0.00977268368253736
35.12,0.00978036583487063
35.13,0.00978809180909468
35.14,0.00979586196556892
35.15,0.00980367666248005
35.16,0.00981153625578257
35.17,0.00981944109918231
35.18,0.00982739154410295
35.19,0.00983538793968342
35.2,0.00984343063271553
35.21,0.0098515199676843
35.22,0.00985965628667584
35.23,0.00986783992938833
35.24,0.00987607123313006
35.25,0.00988435053274139
35.26,0.00989267816064987
35.27,0.00990105444676903
35.28,0.0099094797185415
35.29,0.0099179543008886
35.3,0.00992647851619688
35.31,0.00993505268431227
35.32,0.00994367712251076
35.33,0.00995235214545787
35.34,0.00996107806525293
35.35,0.00996985519136928
35.36,0.00997868383061873
35.37,0.00998756428719416
35.38,0.00999649686261173
35.39,0.0100054818557065
35.4,0.0100145195626354
35.41,0.0100236102768414
35.42,0.0100327542890345
35.43,0.0100419518872557
35.44,0.0100512033567308
35.45,0.0100605089799802
35.46,0.0100698690367492
35.47,0.0100792838040188
35.48,0.0100887535559845
35.49,0.0100982785640539
35.5,0.0101078590968463
35.51,0.0101174954201554
35.52,0.0101271877969952
35.53,0.010136936487536
35.54,0.010146741749142
35.55,0.0101566038363297
35.56,0.0101665230008025
35.57,0.010176499491415
35.58,0.0101865335541967
35.59,0.0101966254322996
35.6,0.0102067753660575
35.61,0.010216983592959
35.62,0.0102272503476252
35.63,0.0102375758618268
35.64,0.0102479603645007
35.65,0.0102584040817209
35.66,0.0102689072367169
35.67,0.0102794700498633
35.68,0.0102900927387034
35.69,0.0103007755179163
35.7,0.0103115185993667
35.71,0.0103223221920704
35.72,0.0103331865022045
35.73,0.0103441117331144
35.74,0.0103550980853678
35.75,0.0103661457566574
35.76,0.0103772549419232
35.77,0.0103884258332532
35.78,0.0103996586199817
35.79,0.0104109534886451
35.8,0.0104223106229901
35.81,0.0104337302040286
35.82,0.0104452124099897
35.83,0.0104567574163622
35.84,0.0104683653959087
35.85,0.0104800365186782
35.86,0.0104917709519685
35.87,0.0105035688604325
35.88,0.0105154304060306
35.89,0.0105273557480121
35.9,0.0105393450430278
35.91,0.0105513984450607
35.92,0.0105635161054608
35.93,0.0105756981730191
35.94,0.0105879447938709
35.95,0.0106002561116475
35.96,0.010612632267374
35.97,0.0106250733995743
35.98,0.0106375796442476
35.99,0.0106501511348877
36,0.0106627880025291
36.01,0.0106754903757478
36.02,0.0106882583806941
36.03,0.010701092141093
36.04,0.0107139917783035
36.05,0.0107269574113042
36.06,0.0107399891567466
36.07,0.0107530871289688
36.08,0.0107662514399972
36.09,0.0107794821996227
36.1,0.0107927795153908
36.11,0.0108061434926204
36.12,0.0108195742344731
36.13,0.0108330718419383
36.14,0.0108466364138684
36.15,0.0108602680470431
36.16,0.0108739668361539
36.17,0.0108877328738617
36.18,0.0109015662508228
36.19,0.0109154670557137
36.2,0.010929435375264
36.21,0.0109434712942847
36.22,0.0109575748957308
36.23,0.0109717462606849
36.24,0.0109859854684463
36.25,0.0110002925964812
36.26,0.0110146677205952
36.27,0.0110291109148299
36.28,0.0110436222515594
36.29,0.0110582018015453
36.3,0.0110728496339373
36.31,0.0110875658163364
36.32,0.0111023504148184
36.33,0.0111172034939819
36.34,0.0111321251169634
36.35,0.0111471153455353
36.36,0.0111621742400647
36.37,0.0111773018596348
36.38,0.0111924982620265
36.39,0.0112077635037915
36.4,0.0112230976402981
36.41,0.0112385007257332
36.42,0.0112539728132026
36.43,0.011269513954743
36.44,0.0112851242013625
36.45,0.0113008036031115
36.46,0.0113165522090828
36.47,0.011332370067536
36.48,0.011348257225835
36.49,0.0113642137305949
36.5,0.0113802396276916
36.51,0.011396334962285
36.52,0.0114124997789116
36.53,0.0114287341215045
36.54,0.0114450380334498
36.55,0.0114614115576488
36.56,0.0114778547365418
36.57,0.0114943676121971
36.58,0.0115109502263177
36.59,0.0115276026203504
36.6,0.0115443248354742
36.61,0.0115611169126972
36.62,0.0115779788929017
36.63,0.0115949108168935
36.64,0.0116119127254501
36.65,0.0116289846593908
36.66,0.0116461266596187
36.67,0.0116633387671845
36.68,0.0116806210233372
36.69,0.0116979734696038
36.7,0.011715396147801
36.71,0.0117328891001355
36.72,0.01175045236924
36.73,0.0117680859982426
36.74,0.0117857900308195
36.75,0.0118035645112713
36.76,0.0118214094845321
36.77,0.0118393249963133
36.78,0.0118573110930806
36.79,0.0118753678221689
36.8,0.0118934952318387
36.81,0.0119116933713133
36.82,0.0119299622908561
36.83,0.0119483020418517
36.84,0.0119667126768249
36.85,0.0119851942495556
36.86,0.0120037468151173
36.87,0.0120223704299364
36.88,0.0120410651518644
36.89,0.0120598310402585
36.9,0.0120786681560308
36.91,0.0120975765617053
36.92,0.0121165563215125
36.93,0.0121356075014469
36.94,0.0121547301693282
36.95,0.0121739243948615
36.96,0.0121931902497251
36.97,0.0122125278076479
36.98,0.0122319371444303
36.99,0.0122514183380829
37,0.0122709714688428
37.01,0.0122905966192557
37.02,0.0123102938742762
37.03,0.0123300633213059
37.04,0.0123499050502718
37.05,0.012369819153714
37.06,0.0123898057268468
37.07,0.0124098648676424
37.08,0.0124299966768699
37.09,0.0124502012582344
37.1,0.0124704787183942
37.11,0.0124908291670351
37.12,0.0125112527169922
37.13,0.012531749484299
37.14,0.0125523195882459
37.15,0.0125729631514907
37.16,0.0125936803001095
37.17,0.0126144711636601
37.18,0.0126353358753341
37.19,0.0126562745719524
37.2,0.0126772873940594
37.21,0.0126983744860381
37.22,0.0127195359961725
37.23,0.0127407720766924
37.24,0.0127620828839252
37.25,0.0127834685782984
37.26,0.0128049293244744
37.27,0.0128264652913995
37.28,0.0128480766524112
37.29,0.0128697635852897
37.3,0.012891526272381
37.31,0.012913364900636
37.32,0.0129352796617135
37.33,0.0129572707520739
37.34,0.0129793383730532
37.35,0.0130014827309307
37.36,0.0130237040370296
37.37,0.0130460025077993
37.38,0.0130683783649179
37.39,0.0130908318353498
37.4,0.0131133631514303
37.41,0.0131359725509657
37.42,0.0131586602773325
37.43,0.0131814265795336
37.44,0.013204271712315
37.45,0.0132271959362236
37.46,0.0132501995177037
37.47,0.0132732827292215
37.48,0.0132964458493064
37.49,0.013319689162636
37.5,0.0133430129601779
37.51,0.0133664175392475
37.52,0.0133899032035605
37.53,0.0134134702634124
37.54,0.0134371190356685
37.55,0.0134608498439395
37.56,0.0134846630186309
37.57,0.0135085588970217
37.58,0.013532537823404
37.59,0.0135566001491103
37.6,0.0135807462326892
37.61,0.0136049764399105
37.62,0.0136292911439224
37.63,0.0136536907253219
37.64,0.0136781755722453
37.65,0.0137027460804729
37.66,0.0137274026535237
37.67,0.0137521457027203
37.68,0.0137769756473485
37.69,0.0138018929146874
37.7,0.013826897940134
37.71,0.0138519911673173
37.72,0.0138771730481673
37.73,0.0139024440430188
37.74,0.0139278046207119
37.75,0.0139532552587012
37.76,0.0139787964431314
37.77,0.0140044286689639
37.78,0.0140301524400572
37.79,0.0140559682692526
37.8,0.0140818766785117
37.81,0.0141078781989845
37.82,0.0141339733711525
37.83,0.0141601627448565
