Freq [GHz],AbsorbanceTM [],AbsorbanceTE []
70,0.002437722,0.003153578
70.05,0.002428507,0.003124707
70.1,0.002419768,0.003096954
70.15,0.002411486,0.003070308
70.2,0.002403641,0.003044753
70.25,0.002396216,0.00302027
70.3,0.002389196,0.002996833
70.35,0.002382568,0.002974409
70.4,0.002376319,0.002952956
70.45,0.00237044,0.002932423
70.5,0.002364922,0.002912751
70.55,0.002359759,0.002893869
70.6,0.002354947,0.002875696
70.65,0.002350485,0.002858144
70.7,0.002346373,0.002841116
70.75,0.002342615,0.00282451
70.8,0.002339219,0.002808218
70.85,0.002336196,0.002792135
70.9,0.002333561,0.002776158
70.95,0.002331338,0.002760194
71,0.002329552,0.002744164
71.05,0.002328241,0.002728011
71.1,0.002327449,0.002711707
71.15,0.002327233,0.002695261
71.2,0.002327663,0.002678729
71.25,0.002328829,0.002662223
71.3,0.002330841,0.002645919
71.35,0.002333837,0.002630071
71.4,0.002337991,0.002615015
71.45,0.002343523,0.002601185
71.5,0.002350713,0.002589116
71.55,0.002359919,0.002579462
71.6,0.002371605,0.002573003
71.65,0.002386378,0.00257067
71.7,0.002405045,0.002573569
71.75,0.002428691,0.002583031
71.8,0.002458799,0.00260068
71.85,0.002497444,0.002628562
71.9,0.002547587,0.002669334
71.95,0.002613572,0.002726593
72,0.002701974,0.002805419
72.05,0.002823125,0.002913311
72.1,0.002994039,0.003061866
72.15,0.003244409,0.003269937
72.2,0.003630307,0.003570117
72.25,0.004270622,0.004023855
72.3,0.005476444,0.004768348
72.35,0.008710554,0.006345457
72.4,0.224355081,0.087792962
72.45,0.037432918,0.015712973
72.5,0.13493697,0.031157556
72.55,0.09817379,0.099350202
72.6,0.028982239,0.123690489
72.65,0.012714761,0.03918701
72.7,0.007729671,0.017400776
72.75,0.005615191,0.010323311
72.8,0.004524364,0.007256711
72.85,0.003890786,0.005660481
72.9,0.003494194,0.004721771
72.95,0.003234989,0.004120881
73,0.00306359,0.003713277
73.05,0.002954102,0.003427483
73.1,0.002893321,0.003226697
73.15,0.002875878,0.003092724
73.2,0.002902257,0.003018859
73.25,0.002978435,0.003006904
73.3,0.003116817,0.003066448
73.35,0.003338638,0.003215809
73.4,0.003678562,0.00348464
73.45,0.004193051,0.003918771
73.5,0.004975702,0.004588474
73.55,0.006186024,0.005602363
73.6,0.008104742,0.007130675
73.65,0.011240803,0.009443829
73.7,0.016527134,0.01297294
73.75,0.025580577,0.018388451
73.8,0.040433516,0.026629269
73.85,0.060054445,0.038574687
73.9,0.073203746,0.053567469
73.95,0.069088224,0.066796429
74,0.055778792,0.071282089
74.05,0.043261398,0.067736799
74.1,0.033742684,0.062073045
74.15,0.025622046,0.053846998
74.2,0.015565086,0.044468573
74.25,0.010618731,0.036490737
74.3,0.011903905,0.030369753
74.35,0.012305369,0.025767222
74.4,0.012067937,0.022287796
74.45,0.011645924,0.01962759
74.5,0.011204454,0.017572664
74.55,0.010797074,0.015975023
74.6,0.010438215,0.014731889
74.65,0.010128477,0.01377113
74.7,0.009863789,0.013041531
74.75,0.009638837,0.012506356
74.8,0.009448355,0.01213906
74.85,0.00928757,0.011920385
74.9,0.009152309,0.011836382
74.95,0.009038978,0.011877018
75,0.008944498,0.012035202
75.05,0.007823281,0.01024903
75.1,0.007119408,0.009056278
75.15,0.006732722,0.008333704
75.2,0.006583936,0.007978944
75.25,0.006610465,0.007907321
75.3,0.006763085,0.00804907
75.35,0.00700326,0.008346964
75.4,0.007300999,0.00875429
75.45,0.007633152,0.009233137
75.5,0.007982046,0.009752956
75.55,0.008334394,0.010289352
75.6,0.008680425,0.010823074
75.65,0.009013188,0.011339169
75.7,0.009327996,0.011826283
75.75,0.009621976,0.01227607
75.8,0.009893717,0.012682706
75.85,0.010142986,0.01304249
75.9,0.010370497,0.013353501
75.95,0.010577739,0.013615327
76,0.010766831,0.013828833
76.05,0.010940419,0.013995978
76.1,0.011101595,0.01411966
76.15,0.011253836,0.014203597
76.2,0.011400974,0.014252233
76.25,0.011547177,0.014270664
76.3,0.011696946,0.014264592
76.35,0.011855137,0.014240289
76.4,0.012026995,0.014204591
76.45,0.01221821,0.014164905
76.5,0.012434996,0.014129232
76.55,0.012684194,0.014106221
76.6,0.012973411,0.01410524
76.65,0.013311191,0.014136474
76.7,0.013707243,0.014211058
76.75,0.014172728,0.01434125
76.8,0.014720628,0.014540646
76.85,0.015366227,0.014824459
76.9,0.016127722,0.015209872
76.95,0.017027045,0.015716482
77,0.018090915,0.016366868
77.05,0.01935226,0.017187313
77.1,0.020852099,0.018208722
77.15,0.022642072,0.019467806
77.2,0.024787864,0.021008601
77.25,0.027373832,0.022884426
77.3,0.030509263,0.025160407
77.35,0.034336753,0.027916735
77.4,0.03904319,0.031252822
77.45,0.044873439,0.035292555
77.5,0.052145639,0.040190714
77.55,0.061263589,0.046140382
77.6,0.072713682,0.053380345
77.65,0.087016896,0.062199635
77.7,0.10457754,0.072931978
77.75,0.125342738,0.085923244
77.8,0.148229077,0.101435316
77.85,0.170536789,0.11941689
77.9,0.188066409,0.139049063
77.95,0.196645018,0.158095783
78,0.194313267,0.172653507
78.05,0.182125286,0.1785957
78.1,0.163044804,0.174505883
78.15,0.140481574,0.162551136
78.2,0.117457302,0.146158174
78.25,0.096188478,0.128067155
78.3,0.077895611,0.110095552
78.35,0.0629085,0.093380056
78.4,0.050985039,0.078527339
78.45,0.041635797,0.065739377
78.5,0.034335737,0.054954621
78.55,0.028622333,0.045973948
78.6,0.024123328,0.038548468
78.65,0.020552144,0.032429807
78.7,0.017692643,0.027393786
78.75,0.015382962,0.023248448
78.8,0.0135018,0.019834121
78.85,0.01195778,0.017020037
78.9,0.010681536,0.014699895
78.95,0.009619926,0.012787482
79,0.008731848,0.011212805
79.05,0.007985198,0.009918857
79.1,0.007354655,0.00885899
79.15,0.006820063,0.007994818
79.2,0.006365234,0.007294558
79.25,0.005977055,0.006731717
79.3,0.005644822,0.006284067
79.35,0.005359732,0.005932828
79.4,0.005114496,0.005662029
79.45,0.004903044,0.005458
79.5,0.004720292,0.005308966
79.55,0.004561958,0.005204729
79.6,0.004424426,0.005136408
79.65,0.00430463,0.00509623
79.7,0.004199962,0.005077369
79.75,0.004108203,0.005073803
79.8,0.00402746,0.005080212
79.85,0.003956124,0.005091884
79.9,0.003892829,0.005104645
79.95,0.003836416,0.005114798
80,0.003785914,0.005119075
