"Freq [GHz]","AbsorbanceTM []"
30,0.00956637084986711
30.01,0.00959637632560284
30.02,0.00962611254129331
30.03,0.00965557963218788
30.04,0.00968477774504228
30.05,0.00971370703808594
30.06,0.00974236768111614
30.07,0.00977075985541698
30.08,0.00979888375385141
30.09,0.00982673958084934
30.1,0.00985432755240445
30.11,0.00988164789611579
30.12,0.00990870085116047
30.13,0.00993548666832911
30.14,0.00996200561004523
30.15,0.0099882579503362
30.16,0.0100142439748581
30.17,0.0100399639808947
30.18,0.0100654182773734
30.19,0.0100906071848332
30.2,0.0101155310354681
30.21,0.0101401901730976
30.22,0.0101645849531713
30.23,0.0101887157427775
30.24,0.0102125829205849
30.25,0.0102361868769284
30.26,0.0102595280137157
30.27,0.0102826067444669
30.28,0.0103054234942846
30.29,0.0103279786998567
30.3,0.0103502728094256
30.31,0.0103723062827952
30.32,0.0103940795912968
30.33,0.0104155932177527
30.34,0.0104368476565465
30.35,0.0104578434134937
30.36,0.0104785810058767
30.37,0.0104990609624421
30.38,0.0105192838233145
30.39,0.010539250140049
30.4,0.0105589604755256
30.41,0.0105784154040062
30.42,0.0105976155110216
30.43,0.0106165613934028
30.44,0.0106352536592277
30.45,0.0106536929277973
30.46,0.0106718798295823
30.47,0.0106898150062223
30.48,0.0107074991104419
30.49,0.010724932806072
30.5,0.0107421167679608
30.51,0.0107590516819398
30.52,0.0107757382448392
30.53,0.010792177164363
30.54,0.0108083691590976
30.55,0.0108243149584513
30.56,0.0108400153026206
30.57,0.0108554709425187
30.58,0.0108706826397534
30.59,0.010885651166556
30.6,0.0109003773057376
30.61,0.0109148618506278
30.62,0.0109291056050591
30.63,0.0109431093832602
30.64,0.0109568740098177
30.65,0.010970400319652
30.66,0.010983689157903
30.67,0.0109967413799067
30.68,0.0110095578511239
30.69,0.011022139447087
30.7,0.0110344870533252
30.71,0.0110466015653045
30.72,0.0110584838883542
30.73,0.0110701349376192
30.74,0.0110815556379676
30.75,0.0110927469239552
30.76,0.011103709739712
30.77,0.011114445038907
30.78,0.0111249537846609
30.79,0.0111352369494638
30.8,0.0111452955151361
30.81,0.0111551304726921
30.82,0.0111647428223399
30.83,0.0111741335733286
30.84,0.0111833037439353
30.85,0.0111922543613139
30.86,0.0112009864614946
30.87,0.0112095010892477
30.88,0.01121779929801
30.89,0.0112258821498117
30.9,0.0112337507151833
30.91,0.0112414060730798
30.92,0.011248849310792
30.93,0.0112560815238328
30.94,0.0112631038158999
30.95,0.0112699172987417
30.96,0.0112765230920808
30.97,0.0112829223235293
30.98,0.0112891161285043
30.99,0.0112951056501082
31,0.0113008920390558
31.01,0.0113064764535701
31.02,0.0113118600593264
31.03,0.011317044029267
31.04,0.0113220295436107
31.05,0.0113268177896658
31.06,0.0113314099618007
31.07,0.0113358072612968
31.08,0.0113400108962799
31.09,0.0113440220816029
31.1,0.0113478420387448
31.11,0.0113514719957248
31.12,0.0113549131869761
31.13,0.0113581668532776
31.14,0.0113612342416028
31.15,0.0113641166050601
31.16,0.0113668152027817
31.17,0.0113693312997682
31.18,0.0113716661668786
31.19,0.0113738210806117
31.2,0.0113757973230857
31.21,0.0113775961819079
31.22,0.0113792189500329
31.23,0.0113806669257062
31.24,0.011381941412322
31.25,0.0113830437183343
31.26,0.0113839751571035
31.27,0.0113847370468675
31.28,0.0113853307105564
31.29,0.0113857574757089
31.3,0.0113860186743679
31.31,0.0113861156429748
31.32,0.0113860497222187
31.33,0.011385822256989
31.34,0.0113854345962119
31.35,0.0113848880927423
31.36,0.0113841841032819
31.37,0.0113833239882383
31.38,0.0113823091116327
31.39,0.0113811408409688
31.4,0.0113798205471185
31.41,0.0113783496042298
31.42,0.0113767293896035
31.43,0.0113749612835748
31.44,0.011373046669391
31.45,0.0113709869331262
31.46,0.0113687834635383
31.47,0.0113664376519752
31.48,0.0113639508922437
31.49,0.0113613245805171
31.5,0.0113585601152063
31.51,0.011355658896845
31.52,0.0113526223279833
31.53,0.0113494518130751
31.54,0.0113461487583686
31.55,0.0113427145717558
31.56,0.0113391506627208
31.57,0.0113354584421911
31.58,0.0113316393224032
31.59,0.0113276947168505
31.6,0.0113236260401103
31.61,0.0113194347077623
31.62,0.0113151221362653
31.63,0.0113106897428803
31.64,0.0113061389454769
31.65,0.0113014711625211
31.66,0.0112966878129029
31.67,0.0112917903158229
31.68,0.0112867800907246
31.69,0.0112816585571245
31.7,0.0112764271345773
31.71,0.011271087242491
31.72,0.0112656403000773
31.73,0.011260087726201
31.74,0.0112544309392711
31.75,0.0112486713572036
31.76,0.0112428103971991
31.77,0.0112368494757437
31.78,0.0112307900084205
31.79,0.0112246334098718
31.8,0.0112183810936277
31.81,0.011212034472066
31.82,0.0112055949562377
31.83,0.011199063955836
31.84,0.0111924428790381
31.85,0.0111857331324243
31.86,0.0111789361208825
31.87,0.011172053247482
31.88,0.0111650859133891
31.89,0.0111580355177746
31.9,0.0111509034576974
31.91,0.0111436911280173
31.92,0.0111363999212835
31.93,0.0111290312276405
31.94,0.0111215864347365
31.95,0.0111140669276413
31.96,0.0111064740886971
31.97,0.0110988092974937
31.98,0.0110910739307153
31.99,0.0110832693620988
32,0.0110753969622698
32.01,0.0110674580987346
32.02,0.011059454135731
32.03,0.0110513864341265
32.04,0.0110432563514152
32.05,0.011035065241523
32.06,0.0110268144547594
32.07,0.0110185053377534
32.08,0.0110101392333516
32.09,0.0110017174805247
32.1,0.0109932414142682
32.11,0.0109847123655593
32.12,0.0109761316612274
32.13,0.010967500623919
32.14,0.0109588205719575
32.15,0.0109500928193427
32.16,0.0109413186755632
32.17,0.0109324994456146
32.18,0.0109236364298736
32.19,0.0109147309240418
32.2,0.010905784219026
32.21,0.0108967976009294
32.22,0.0108877723509189
32.23,0.0108787097451714
32.24,0.0108696110548109
32.25,0.0108604775458221
32.26,0.0108513104790015
32.27,0.0108421111098445
32.28,0.0108328806885272
32.29,0.0108236204597889
32.3,0.0108143316628976
32.31,0.0108050155315859
32.32,0.010795673293962
32.33,0.0107863061724549
32.34,0.0107769153837589
32.35,0.0107675021387721
32.36,0.010758067642512
32.37,0.0107486130940789
32.38,0.0107391396865864
32.39,0.0107296486070964
32.4,0.0107201410366002
32.41,0.010710618149876
32.42,0.0107010811155375
32.43,0.0106915310958934
32.44,0.0106819692469483
32.45,0.0106723967183217
32.46,0.0106628146532211
32.47,0.0106532241883471
32.48,0.0106436264538808
32.49,0.0106340225734409
32.5,0.0106244136639884
32.51,0.0106148008358474
32.52,0.0106051851925859
32.53,0.0105955678310332
32.54,0.0105859498411968
32.55,0.0105763323062402
32.56,0.01056671630242
32.57,0.0105571028990689
32.58,0.010547493158536
32.59,0.0105378881361697
32.6,0.0105282888802526
32.61,0.0105186964319598
32.62,0.0105091118253861
32.63,0.0104995360874198
32.64,0.010489970237779
32.65,0.0104804152889361
32.66,0.0104708722461216
32.67,0.0104613421072502
32.68,0.0104518258629223
32.69,0.0104423244963805
32.7,0.0104328389835073
32.71,0.0104233702927432
32.72,0.0104139193850993
32.73,0.0104044872141533
32.74,0.0103950747259507
32.75,0.0103856828590705
32.76,0.0103763125445184
32.77,0.010366964705787
32.78,0.0103576402587396
32.79,0.010348340111679
32.8,0.0103390651653037
32.81,0.010329816312632
32.82,0.0103205944390685
32.83,0.0103114004223352
32.84,0.0103022351324598
32.85,0.0102930994317905
32.86,0.0102839941749527
32.87,0.0102749202088502
32.88,0.0102658783726404
32.89,0.010256869497732
32.9,0.0102478944077904
32.91,0.0102389539186893
32.92,0.0102300488385415
32.93,0.0102211799676677
32.94,0.0102123480985988
32.95,0.0102035540160641
32.96,0.0101947984969892
32.97,0.0101860823104877
32.98,0.01017740621787
32.99,0.0101687709726281
33,0.0101601773204308
33.01,0.010151625999138
33.02,0.0101431177388038
33.03,0.0101346532616148
33.04,0.0101262332820006
33.05,0.0101178585065498
33.06,0.0101095296340188
33.07,0.0101012473553923
33.08,0.0100930123538214
33.09,0.0100848253046709
33.1,0.010076686875513
33.11,0.0100685977261299
33.12,0.0100605585085228
33.13,0.0100525698669072
33.14,0.0100446324377588
33.15,0.0100367468497859
33.16,0.0100289137239508
33.17,0.0100211336734954
33.18,0.0100134073039156
33.19,0.0100057352130031
33.2,0.00999811799088313
33.21,0.00999055621995426
33.22,0.0099830504749564
33.23,0.00997560132298891
33.24,0.00996820932351428
33.25,0.00996087502833531
33.26,0.00995359898168846
33.27,0.00994638172018425
33.28,0.00993922377289636
33.29,0.00993212566131496
33.3,0.00992508789940416
33.31,0.00991811099361473
33.32,0.00991119544290553
33.33,0.00990434173876098
33.34,0.00989755036520812
33.35,0.00989082179882728
33.36,0.00988415650882712
33.37,0.0098775549570056
33.38,0.00987101759778442
33.39,0.00986454487828792
33.4,0.00985813723828921
33.41,0.00985179511029555
33.42,0.00984551891953533
33.43,0.00983930908401454
33.44,0.009833166014526
33.45,0.0098270901146823
33.46,0.00982108178091468
33.47,0.00981514140255879
33.48,0.00980926936184623
33.49,0.00980346603392912
33.5,0.0097977317869189
33.51,0.00979206698193125
33.52,0.00978647197306437
33.53,0.00978094710751787
33.54,0.00977549272553735
33.55,0.00977010916050947
33.56,0.00976479673892761
33.57,0.0097595557804897
33.58,0.00975438659810013
33.59,0.00974928949790355
33.6,0.00974426477931278
33.61,0.00973931273507767
33.62,0.00973443365126747
33.63,0.00972962780733921
33.64,0.00972489547616073
33.65,0.00972023692405533
33.66,0.0097156524108335
33.67,0.00971114218981495
33.68,0.00970670650788374
33.69,0.00970234560552796
33.7,0.00969805971684812
33.71,0.00969384906962156
33.72,0.00968971388533424
33.73,0.00968565437921054
33.74,0.00968167076025506
33.75,0.00967776323129044
33.76,0.0096739319890109
33.77,0.00967017722400032
33.78,0.00966649912075868
33.79,0.00966289785779351
33.8,0.00965937360760172
33.81,0.00965592653674885
33.82,0.00965255680589316
33.83,0.0096492645698294
33.84,0.00964604997752272
33.85,0.00964291317213894
33.86,0.00963985429113834
33.87,0.00963687346625286
33.88,0.00963397082354478
33.89,0.00963114648349916
33.9,0.00962840056097736
33.91,0.00962573316531079
33.92,0.0096231444003847
33.93,0.00962063436456673
33.94,0.00961820315085615
33.95,0.00961585084687777
33.96,0.00961357753491954
33.97,0.00961138329199795
33.98,0.00960926818989949
33.99,0.00960723229519767
34,0.00960527566931968
34.01,0.00960339836858859
34.02,0.00960160044424563
34.03,0.00959988194252626
34.04,0.00959824290468592
34.05,0.00959668336703767
34.06,0.00959520336098907
34.07,0.00959380291314449
34.08,0.00959248204523777
34.09,0.00959124077430473
34.1,0.00959007911263898
34.11,0.0095889970678481
34.12,0.00958799464294402
34.13,0.00958707183633556
34.14,0.00958622864188152
34.15,0.00958546504897195
34.16,0.00958478104254423
34.17,0.00958417660309263
34.18,0.00958365170680153
34.19,0.00958320632550802
34.2,0.0095828404267837
34.21,0.00958255397397034
34.22,0.00958234692621951
34.23,0.00958221923858282
34.24,0.0095821708619509
34.25,0.00958220174323288
34.26,0.00958231182528768
34.27,0.00958250104702663
34.28,0.00958276934345514
34.29,0.00958311664570555
34.3,0.00958354288107899
34.31,0.00958404797308399
34.32,0.00958463184151348
34.33,0.00958529440245715
34.34,0.00958603556835436
34.35,0.00958685524803971
34.36,0.00958775334680706
34.37,0.00958872976641723
34.38,0.00958978440516378
34.39,0.00959091715791616
34.4,0.00959212791614872
34.41,0.00959341656803681
34.42,0.00959478299842542
34.43,0.00959622708891572
34.44,0.00959774871792352
34.45,0.00959934776068894
34.46,0.00960102408932617
34.47,0.00960277757289663
34.48,0.00960460807742269
34.49,0.00960651546594604
34.5,0.00960849959855026
34.51,0.00961056033243013
34.52,0.00961269752195071
34.53,0.00961491101860767
34.54,0.00961720067118932
34.55,0.00961956632572314
34.56,0.00962200782556877
34.57,0.00962452501144317
34.58,0.00962711772145797
34.59,0.00962978579118534
34.6,0.00963252905368939
34.61,0.00963534733956162
34.62,0.00963824047695649
34.63,0.00964120829165827
34.64,0.00964425060711505
34.65,0.00964736724446347
34.66,0.00965055802259873
34.67,0.0096538227581966
34.68,0.00965716126574945
34.69,0.00966057335764758
34.7,0.00966405884415433
34.71,0.00966761753351009
34.72,0.00967124923195894
34.73,0.00967495374375438
34.74,0.0096787308712396
34.75,0.00968258041487535
34.76,0.00968650217328026
34.77,0.00969049594326699
34.78,0.00969456151989501
34.79,0.0096986986965083
34.8,0.00970290726475453
34.81,0.00970718701465612
34.82,0.00971153773464095
34.83,0.00971595921154267
34.84,0.00972045123071852
34.85,0.00972501357603017
34.86,0.0097296460298868
34.87,0.00973434837330955
34.88,0.00973912038595093
34.89,0.00974396184613047
34.9,0.0097488725309185
34.91,0.00975385221610059
34.92,0.00975890067627916
34.93,0.00976401768486534
34.94,0.00976920301416129
34.95,0.00977445643536967
34.96,0.00977977771864214
34.97,0.0097851666330937
34.98,0.00979062294688737
34.99,0.00979614642722348
35,0.00980173684040808
35.01,0.0098073939518879
35.02,0.00981311752625269
35.03,0.00981890732732305
35.04,0.00982476311815061
35.05,0.00983068466106518
35.06,0.00983667171772151
35.07,0.00984272404912645
35.08,0.00984884141565745
35.09,0.00985502357712909
35.1,0.00986127029280581
35.11,0.00986758132145837
35.12,0.00987395642138056
35.13,0.00988039535042085
35.14,0.00988689786605768
35.15,0.00989346372535715
35.16,0.00990009268510039
35.17,0.00990678450174465
35.18,0.00991353893147695
35.19,0.00992035573028682
35.2,0.00992723465394674
35.21,0.00993417545807662
35.22,0.00994117789815652
35.23,0.00994824172958608
35.24,0.00995536670769659
35.25,0.00996255258778878
35.26,0.00996979912517559
35.27,0.00997710607521229
35.28,0.00998447319330587
35.29,0.00999190023497387
35.3,0.00999938695586711
35.31,0.0100069331118163
35.32,0.0100145384588183
35.33,0.0100222027531249
35.34,0.0100299257512426
35.35,0.0100377072099784
35.36,0.0100455468864334
35.37,0.0100534445380909
35.38,0.0100613999228032
35.39,0.0100694127988372
35.4,0.0100774829249222
35.41,0.0100856100602327
35.42,0.0100937939644703
35.43,0.0101020343978678
35.44,0.0101103311212216
35.45,0.0101186838959055
35.46,0.0101270924839397
35.47,0.0101355566479846
35.48,0.010144076151373
35.49,0.0101526507581667
35.5,0.0101612802331521
35.51,0.0101699643418669
35.52,0.01017870285067
35.53,0.0101874955267277
35.54,0.0101963421380609
35.55,0.010205242453554
35.56,0.0102141962430083
35.57,0.010223203277153
35.58,0.01023226332769
35.59,0.0102413761672684
35.6,0.0102505415695806
35.61,0.0102597593093628
35.62,0.0102690291623817
35.63,0.0102783509055266
35.64,0.010287724316787
35.65,0.0102971491752947
35.66,0.0103066252613597
35.67,0.0103161523564658
35.68,0.0103257302433403
35.69,0.0103353587059208
35.7,0.0103450375294508
35.71,0.0103547665004309
35.72,0.0103645454066963
35.73,0.0103743740374244
35.74,0.010384252183147
35.75,0.0103941796358022
35.76,0.0104041561887148
35.77,0.0104141816366654
35.78,0.0104242557758937
35.79,0.0104343784041124
35.8,0.0104445493205343
35.81,0.0104547683259311
35.82,0.0104650352225829
35.83,0.0104753498143705
35.84,0.0104857119067667
35.85,0.0104961213068629
35.86,0.0105065778233628
35.87,0.0105170812666682
35.88,0.0105276314488562
35.89,0.0105382281836899
35.9,0.0105488712866687
35.91,0.0105595605750392
35.92,0.0105702958678052
35.93,0.010581076985779
35.94,0.010591903751541
35.95,0.010602775989549
35.96,0.0106136935260703
35.97,0.0106246561892623
35.98,0.0106356638091503
35.99,0.0106467162176817
36,0.0106578132487285
36.01,0.0106689547381107
36.02,0.0106801405236044
36.03,0.0106913704449709
36.04,0.0107026443439716
36.05,0.0107139620643992
36.06,0.0107253234520739
36.07,0.010736728354879
36.08,0.0107481766227751
36.09,0.0107596681077885
36.1,0.0107712026641014
36.11,0.0107827801479795
36.12,0.0107944004178703
36.13,0.0108060633343574
36.14,0.010817768760197
36.15,0.0108295165603635
36.16,0.0108413066020304
36.17,0.0108531387546117
36.18,0.0108650128897274
36.19,0.0108769288813095
36.2,0.0108888866055247
36.21,0.0109008859408466
36.22,0.0109129267680603
36.23,0.0109250089702604
36.24,0.010937132432903
36.25,0.010949297043735
36.26,0.0109615026929542
36.27,0.0109737492730833
36.28,0.0109860366790503
36.29,0.0109983648081865
36.3,0.0110107335602647
36.31,0.0110231428374935
36.32,0.0110355925445065
36.33,0.0110480825884348
36.34,0.0110606128788601
36.35,0.0110731833278778
36.36,0.0110857938500526
36.37,0.0110984443625112
36.38,0.0111111347848686
36.39,0.0111238650392961
36.4,0.0111366350505325
36.41,0.0111494447458513
36.42,0.0111622940551327
36.43,0.0111751829108327
36.44,0.0111881112480002
36.45,0.011201079004304
36.46,0.0112140861200353
36.47,0.0112271325381313
36.48,0.0112402182041406
36.49,0.011253343066287
36.5,0.0112665070754805
36.51,0.0112797101852666
36.52,0.0112929523518916
36.53,0.0113062335343161
36.54,0.0113195536941885
36.55,0.0113329127958587
36.56,0.0113463108064328
36.57,0.0113597476957278
36.58,0.0113732234362979
36.59,0.0113867380034766
36.6,0.0114002913753322
36.61,0.0114138835327001
36.62,0.0114275144592104
36.63,0.0114411841412685
36.64,0.0114548925680676
36.65,0.0114686397315906
36.66,0.0114824256266652
36.67,0.0114962502509058
36.68,0.0115101136047379
36.69,0.0115240156914449
36.7,0.011537956517123
36.71,0.0115519360907415
36.72,0.0115659544240804
36.73,0.0115800115317942
36.74,0.0115941074314057
36.75,0.0116082421432995
36.76,0.0116224156907184
36.77,0.0116366280998079
36.78,0.0116508793995763
36.79,0.0116651696219321
36.8,0.0116794988016782
36.81,0.0116938669765309
36.82,0.0117082741870669
36.83,0.0117227204768211
36.84,0.0117372058922024
36.85,0.011751730482554
36.86,0.011766294300142
36.87,0.0117808974001495
36.88,0.0117955398406858
36.89,0.0118102216828082
36.9,0.0118249429904732
36.91,0.0118397038306084
36.92,0.011854504273067
36.93,0.0118693443906384
36.94,0.0118842242590758
36.95,0.0118991439570625
36.96,0.0119141035662315
36.97,0.0119291031711812
36.98,0.0119441428594401
36.99,0.0119592227215117
37,0.0119743428508526
37.01,0.0119895033438494
37.02,0.0120047042998835
37.03,0.0120199458212759
37.04,0.0120352280132991
37.05,0.0120505509841933
37.06,0.0120659148451682
37.07,0.0120813197103751
37.08,0.0120967656969234
37.09,0.01211225292489
37.1,0.0121277815173108
37.11,0.0121433516001814
37.12,0.0121589633024388
37.13,0.0121746167559843
37.14,0.0121903120956621
37.15,0.0122060494592993
37.16,0.0122218289876276
37.17,0.0122376508243434
37.18,0.0122535151161181
37.19,0.0122694220125391
37.2,0.0122853716661167
37.21,0.0123013642323401
37.22,0.0123173998696031
37.23,0.0123334787392435
37.24,0.0123496010055301
37.25,0.0123657668356557
37.26,0.0123819763997226
37.27,0.012398229870758
37.28,0.0124145274247059
37.29,0.0124308692404145
37.3,0.0124472554996342
37.31,0.0124636863870176
37.32,0.0124801620901177
37.33,0.0124966827993512
37.34,0.012513248708055
37.35,0.01252986001242
37.36,0.0125465169115128
37.37,0.0125632196072696
37.38,0.0125799683044812
37.39,0.012596763210808
37.4,0.0126136045367263
37.41,0.0126304924955896
37.42,0.0126474273035558
37.43,0.012664409179622
37.44,0.0126814383455931
37.45,0.0126985150261112
37.46,0.0127156394485751
37.47,0.0127328118432244
37.48,0.0127500324430646
37.49,0.0127673014838735
37.5,0.0127846192041959
37.51,0.0128019858453566
37.52,0.0128194016514228
37.53,0.0128368668691942
37.54,0.0128543817482084
37.55,0.0128719465407175
37.56,0.0128895615016932
37.57,0.0129072268888183
37.58,0.0129249429624604
37.59,0.0129427099856375
37.6,0.01296052822408
37.61,0.0129783979461617
37.62,0.0129963194229067
37.63,0.0130142929279538
37.64,0.0130323187375827
37.65,0.0130503971306961
37.66,0.0130685283887688
37.67,0.0130867127958719
37.68,0.0131049506386655
37.69,0.0131232422063621
37.7,0.0131415877906959
37.71,0.0131599876859785
37.72,0.0131784421890193
37.73,0.0131969515991321
37.74,0.0132155162181229
37.75,0.0132341363502908
37.76,0.0132528123023814
37.77,0.0132715443836003
37.78,0.0132903329055781
37.79,0.0133091781823665
37.8,0.013328080530432
37.81,0.0133470402686048
37.82,0.0133660577180922
37.83,0.0133851332024826
37.84,0.0134042670476708
37.85,0.0134234595818765
37.86,0.0134427111356428
37.87,0.0134620220417827
37.88,0.0134813926353806
37.89,0.0135008232537827
37.9,0.0135203142365534
37.91,0.0135398659254757
37.92,0.0135594786645611
37.93,0.0135791527999346
37.94,0.0135988886799424
37.95,0.0136186866550442
37.96,0.0136385470778051
