"Freq [GHz]","AbsorbanceTM []"
30,0.000409447173947641
30.01,0.000422550491253726
30.02,0.000435481769146318
30.03,0.000448242180705827
30.04,0.000460832896544972
30.05,0.000473255084752378
30.06,0.000485509910903237
30.07,0.00049759853798137
30.08,0.000509522126408646
30.09,0.000521281834004017
30.1,0.000532878815944882
30.11,0.00054431422476664
30.12,0.000555589210305629
30.13,0.000566704919717442
30.14,0.000577662497424192
30.15,0.000588463085120616
30.16,0.000599107821698808
30.17,0.000609597843290954
30.18,0.000619934283214274
30.19,0.000630118271915725
30.2,0.000640150937019524
30.21,0.000650033403259753
30.22,0.000659766792474259
30.23,0.000669352223580333
30.24,0.000678790812518759
30.25,0.00068808367231199
30.26,0.000697231912964558
30.27,0.000706236641497937
30.28,0.000715098961879268
30.29,0.000723819975061768
30.3,0.000732400778883924
30.31,0.000740842468154868
30.32,0.000749146134534806
30.33,0.000757312866546234
30.34,0.000765343749619118
30.35,0.000773239865964892
30.36,0.000781002294623856
30.37,0.000788632111453413
30.38,0.000796130389052574
30.39,0.000803498196807362
30.4,0.000810736600830197
30.41,0.00081784666394924
30.42,0.000824829445715713
30.43,0.000831686002341625
30.44,0.000838417386734625
30.45,0.000845024648428505
30.46,0.00085150883359375
30.47,0.000857870985035536
30.48,0.000864112142120343
30.49,0.000870233340840021
30.5,0.000876235613732734
30.51,0.000882119989872754
30.52,0.00088788749489499
30.53,0.000893539150911393
30.54,0.000899075976571795
30.55,0.00090449898698941
30.56,0.000909809193766264
30.57,0.000915007604941342
30.58,0.000920095224989148
30.59,0.000925073054833248
30.6,0.000929942091783653
30.61,0.000934703329539488
30.62,0.000939357758221737
30.63,0.00094390636426489
30.64,0.000948350130474673
30.65,0.000952690036029491
30.66,0.000956927056386281
30.67,0.000961062163327808
30.68,0.000965096324938131
30.69,0.000969030505599378
30.7,0.000972865665932021
30.71,0.000976602762854162
30.72,0.000980242749503701
30.73,0.000983786575272982
30.74,0.000987235185744395
30.75,0.000990589522764096
30.76,0.000993850524321105
30.77,0.000997019124629128
30.78,0.00100009625407105
30.79,0.00100308283917006
30.8,0.00100597980264483
30.81,0.00100878806332572
30.82,0.00101150853617371
30.83,0.001014142132301
30.84,0.00101668975889979
30.85,0.00101915231927785
30.86,0.00102153071283784
30.87,0.00102382583506733
30.88,0.00102603857750094
30.89,0.00102816982777132
30.9,0.00103022046954626
30.91,0.00103219138254584
30.92,0.00103408344250722
30.93,0.00103589752123201
30.94,0.00103763448650085
30.95,0.00103929520214086
30.96,0.00104088052795825
30.97,0.00104239131976569
30.98,0.00104382842935757
30.99,0.00104519270451553
31,0.0010464849889954
31.01,0.00104770612251104
31.02,0.00104885694074386
31.03,0.00104993827532252
31.04,0.0010509509538269
31.05,0.00105189579976295
31.06,0.00105277363258782
31.07,0.00105358526766974
31.08,0.00105433151630874
31.09,0.00105501318573742
31.1,0.00105563107906481
31.11,0.00105618599531576
31.12,0.00105667872943438
31.13,0.00105711007224063
31.14,0.0010574808104522
31.15,0.00105779172667109
31.16,0.00105804359939632
31.17,0.00105823720297538
31.18,0.00105837330764236
31.19,0.00105845267951787
31.2,0.00105847608056353
31.21,0.00105844426863155
31.22,0.00105835799738463
31.23,0.00105821801640626
31.24,0.00105802507108821
31.25,0.0010577799026924
31.26,0.00105748324830923
31.27,0.00105713584090006
31.28,0.00105673840925646
31.29,0.00105629167800592
31.3,0.00105579636763042
31.31,0.00105525319443611
31.32,0.00105466287056211
31.33,0.0010540261040185
31.34,0.00105334359858889
31.35,0.00105261605394757
31.36,0.00105184416555859
31.37,0.00105102862474094
31.38,0.00105017011863595
31.39,0.00104926933021632
31.4,0.0010483269382725
31.41,0.00104734361745773
31.42,0.00104632003821314
31.43,0.00104525686684354
31.44,0.00104415476547048
31.45,0.00104301439203802
31.46,0.00104183640035105
31.47,0.00104062144000661
31.48,0.00103937015647582
31.49,0.00103808319104348
31.5,0.00103676118084051
31.51,0.00103540475881414
31.52,0.00103401455378183
31.53,0.0010325911903869
31.54,0.00103113528913823
31.55,0.00102964746634471
31.56,0.0010281283342084
31.57,0.00102657850077148
31.58,0.00102499856991167
31.59,0.00102338914139266
31.6,0.00102175081081246
31.61,0.00102008416966104
31.62,0.00101838980524582
31.63,0.00101666830080038
31.64,0.00101492023539795
31.65,0.00101314618399329
31.66,0.00101134671743353
31.67,0.00100952240243879
31.68,0.00100767380163014
31.69,0.00100580147349405
31.7,0.00100390597246169
31.71,0.0010019878488241
31.72,0.00100004764879802
31.73,0.000998085914531877
31.74,0.000996103184045416
31.75,0.000994099991322606
31.76,0.000992076866252134
31.77,0.000990034334666823
31.78,0.000987972918332303
31.79,0.000985893134969662
31.8,0.000983795498247453
31.81,0.000981680517765704
31.82,0.000979548699131749
31.83,0.000977400543887619
31.84,0.000975236549566438
31.85,0.000973057209673667
31.86,0.000970863013727619
31.87,0.000968654447201178
31.88,0.000966431991608951
31.89,0.000964196124453864
31.9,0.00096194731925936
31.91,0.000959686045593267
31.92,0.000957412769013177
31.93,0.000955127951173584
31.94,0.000952832049704422
31.95,0.00095052551836794
31.96,0.000948208806924256
31.97,0.000945882361243711
31.98,0.000943546623263902
31.99,0.000941202031014554
32,0.000938849018617849
32.01,0.000936488016295201
32.02,0.00093411945039612
32.03,0.000931743743373237
32.04,0.000929361313826371
32.05,0.000926972576497653
32.06,0.000924577942262639
32.07,0.000922177818157732
32.08,0.000919772607415825
32.09,0.000917362709414449
32.1,0.000914948519726955
32.11,0.000912530430127623
32.12,0.000910108828610201
32.13,0.00090768409936115
32.14,0.00090525662280172
32.15,0.000902826775603716
32.16,0.000900394930676507
32.17,0.00089796145717469
32.18,0.000895526720539275
32.19,0.000893091082494579
32.2,0.000890654901025911
32.21,0.000888218530448626
32.22,0.00088578232138492
32.23,0.000883346620754288
32.24,0.000880911771834358
32.25,0.000878478114233139
32.26,0.000876045983938312
32.27,0.000873615713269271
32.28,0.00087118763095817
32.29,0.000868762062103179
32.3,0.000866339328203569
32.31,0.00086391974718647
32.32,0.000861503633403982
32.33,0.000859091297634951
32.34,0.000856683047106732
32.35,0.000854279185525941
32.36,0.000851880013053585
32.37,0.000849485826342256
32.38,0.000847096918543455
32.39,0.000844713579315259
32.4,0.000842336094866725
32.41,0.000839964747886057
32.42,0.000837599817665291
32.43,0.000835241580032675
32.44,0.000832890307377876
32.45,0.000830546268710708
32.46,0.000828209729623053
32.47,0.000825880952306624
32.48,0.000823560195611805
32.49,0.000821247714990814
32.5,0.000818943762570856
32.51,0.000816648587150914
32.52,0.000814362434198967
32.53,0.000812085545872976
32.54,0.000809818161042974
32.55,0.000807560515307615
32.56,0.000805312840980843
32.57,0.000803075367140305
32.58,0.000800848319615688
32.59,0.000798631921023585
32.6,0.000796426390775706
32.61,0.000794231945042578
32.62,0.000792048796869227
32.63,0.000789877156111451
32.64,0.000787717229467355
32.65,0.000785569220486781
32.66,0.000783433329618055
32.67,0.000781309754190995
32.68,0.000779198688424909
32.69,0.000777100323466451
32.7,0.000775014847417266
32.71,0.00077294244528836
32.72,0.000770883299069824
32.73,0.000768837587751925
32.74,0.000766805487274147
32.75,0.000764787170625447
32.76,0.000762782807778306
32.77,0.000760792565781654
32.78,0.000758816608693036
32.79,0.000756855097660658
32.8,0.000754908190942483
32.81,0.000752976043829401
32.82,0.00075105880878612
32.83,0.000749156635362014
32.84,0.000747269670264172
32.85,0.000745398057376612
32.86,0.000743541937730186
32.87,0.000741701449554433
32.88,0.000739876728292232
32.89,0.00073806790658415
32.9,0.000736275114333274
32.91,0.00073449847867546
32.92,0.000732738124017862
32.93,0.0007309941720538
32.94,0.000729266741773094
32.95,0.000727555949478154
32.96,0.000725861908796865
32.97,0.000724184730700461
32.98,0.000722524523540713
32.99,0.000720881393022621
33,0.000719255442254485
33.01,0.000717646771748237
33.02,0.000716055479467403
33.03,0.000714481660754607
33.04,0.000712925408476894
33.05,0.000711386812945469
33.06,0.000709865961937006
33.07,0.000708362940771923
33.08,0.000706877832259423
33.09,0.000705410716766774
33.1,0.000703961672206987
33.11,0.000702530774064791
33.12,0.000701118095403186
33.13,0.000699723706879096
33.14,0.000698347676791222
33.15,0.000696990071052728
33.16,0.000695650953229543
33.17,0.000694330384568675
33.18,0.000693028423970787
33.19,0.000691745128044263
33.2,0.000690480551143402
33.21,0.000689234745312572
33.22,0.000688007760350384
33.23,0.000686799643843994
33.24,0.000685610441149231
33.25,0.000684440195393266
33.26,0.000683288947554983
33.27,0.000682156736408035
33.28,0.000681043598601216
33.29,0.000679949568621274
33.3,0.000678874678842645
33.31,0.000677818959531451
33.32,0.000676782438871593
33.33,0.000675765142971407
33.34,0.000674767095880768
33.35,0.000673788319594859
33.36,0.000672828834117123
33.37,0.000671888657425068
33.38,0.000670967805486589
33.39,0.000670066292335236
33.4,0.000669184130012379
33.41,0.000668321328641142
33.42,0.0006674778963911
33.43,0.000666653839553999
33.44,0.000665849162515109
33.45,0.000665063867786309
33.46,0.000664297955997095
33.47,0.000663551425961417
33.48,0.000662824274661689
33.49,0.000662116497260223
33.5,0.000661428087126326
33.51,0.000660759035859826
33.52,0.000660109333265657
33.53,0.000659478967453775
33.54,0.000658867924771545
33.55,0.00065827618985892
33.56,0.0006577037456581
33.57,0.000657150573430965
33.58,0.000656616652776387
33.59,0.000656101961643341
33.6,0.000655606476340442
33.61,0.000655130171582696
33.62,0.000654673020465624
33.63,0.000654234994503344
33.64,0.00065381606364312
33.65,0.000653416196282453
33.66,0.000653035359279519
33.67,0.000652673517993141
33.68,0.000652330636237486
33.69,0.000652006676381767
33.7,0.000651701599291288
33.71,0.000651415364396613
33.72,0.000651147929676132
33.73,0.000650899251698367
33.74,0.00065066928560531
33.75,0.000650457985156505
33.76,0.000650265302744701
33.77,0.000650091189395963
33.78,0.000649935594772777
33.79,0.000649798467240892
33.8,0.000649679753828458
33.81,0.00064957940027377
33.82,0.000649497351041917
33.83,0.000649433549328782
33.84,0.000649387937070811
33.85,0.000649360454965775
33.86,0.000649351042508184
33.87,0.00064935963798507
33.88,0.000649386178488642
33.89,0.000649430599950929
33.9,0.000649492837127341
33.91,0.000649572823636202
33.92,0.000649670492000043
33.93,0.000649785773575995
33.94,0.000649918598665589
33.95,0.000650068896487221
33.96,0.000650236595166165
33.97,0.000650421621803066
33.98,0.000650623902471059
33.99,0.000650843362185904
34,0.000651079924985365
34.01,0.000651333513926433
34.02,0.000651604051061239
34.03,0.000651891457499221
34.04,0.000652195653421783
34.05,0.000652516558035776
34.06,0.0006528540896652
34.07,0.000653208165746433
34.08,0.000653578702774715
34.09,0.000653965616432273
34.1,0.000654368821521367
34.11,0.000654788231985837
34.12,0.000655223760974044
34.13,0.000655675320802129
34.14,0.000656142822981542
34.15,0.000656626178254571
34.16,0.000657125296602445
34.17,0.000657640087206035
34.18,0.000658170458565199
34.19,0.000658716318405417
34.2,0.000659277573763162
34.21,0.000659854130983684
34.22,0.00066044589568337
34.23,0.000661052772881088
34.24,0.000661674666859735
34.25,0.000662311481328559
34.26,0.000662963119316129
34.27,0.0006636294832576
34.28,0.000664310474997931
34.29,0.00066500599579089
34.3,0.00066571594629472
34.31,0.000666440226628318
34.32,0.000667178736353691
34.33,0.000667931374518149
34.34,0.000668698039626436
34.35,0.000669478629692799
34.36,0.00067027304222389
34.37,0.000671081174273169
34.38,0.000671902922411038
34.39,0.000672738182742716
34.4,0.00067358685095098
34.41,0.000674448822298723
34.42,0.000675323991626064
34.43,0.000676212253354902
34.44,0.000677113501553861
34.45,0.000678027629883671
34.46,0.000678954531678211
34.47,0.000679894099891776
34.48,0.000680846227147924
34.49,0.000681810805771788
34.5,0.00068278772773156
34.51,0.000683776884741194
34.52,0.000684778168206668
34.53,0.000685791469247854
34.54,0.000686816678759472
34.55,0.000687853687359574
34.56,0.000688902385426737
34.57,0.000689962663138588
34.58,0.000691034410429059
34.59,0.000692117517057889
34.6,0.000693211872579202
34.61,0.000694317366381592
34.62,0.000695433887677233
34.63,0.00069656132553253
34.64,0.000697699568876331
34.65,0.000698848506496597
34.66,0.000700008027062715
34.67,0.000701178019158921
34.68,0.000702358371242662
34.69,0.000703548971720203
34.7,0.000704749708892782
34.71,0.000705960471016787
34.72,0.000707181146315961
34.73,0.000708411622928118
34.74,0.000709651789011612
34.75,0.000710901532694486
34.76,0.000712160742071699
34.77,0.000713429305274182
34.78,0.000714707110439305
34.79,0.000715994045740076
34.8,0.000717289999363269
34.81,0.000718594859553723
34.82,0.000719908514638878
34.83,0.000721230852980259
34.84,0.000722561763035756
34.85,0.000723901133360072
34.86,0.000725248852577742
34.87,0.000726604809461295
34.88,0.000727968892884068
34.89,0.000729340991839966
34.9,0.000730720995494094
34.91,0.000732108793134678
34.92,0.000733504274217589
34.93,0.000734907328374335
34.94,0.000736317845403067
34.95,0.00073773571531599
34.96,0.000739160828297614
34.97,0.000740593074751494
34.98,0.000742032345309007
34.99,0.000743478530813135
35,0.000744931522347336
35.01,0.000746391211255082
35.02,0.000747857489117987
35.03,0.000749330247785784
35.04,0.000750809379393202
35.05,0.00075229477634009
35.06,0.000753786331326389
35.07,0.000755283937364681
35.08,0.000756787487748101
35.09,0.000758296876109732
35.1,0.000759811996390747
35.11,0.000761332742892251
35.12,0.000762859010237871
35.13,0.000764390693405947
35.14,0.000765927687753631
35.15,0.000767469888961814
35.16,0.00076901719314626
35.17,0.000770569496761353
35.18,0.00077212669666582
35.19,0.000773688690142271
35.2,0.000775255374838801
35.21,0.000776826648868356
35.22,0.000778402410723578
35.23,0.000779982559360293
35.24,0.000781566994153771
35.25,0.000783155614930697
35.26,0.000784748321992379
35.27,0.000786345016078993
35.28,0.000787945598399897
35.29,0.000789549970648951
35.3,0.000791158034998185
35.31,0.000792769694129669
35.32,0.000794384851187546
35.33,0.000796003409846868
35.34,0.000797625274281621
35.35,0.000799250349213576
35.36,0.000800878539843897
35.37,0.000802509751927749
35.38,0.000804143891773745
35.39,0.00080578086620553
35.4,0.000807420582617513
35.41,0.000809062948967543
35.42,0.000810707873753258
35.43,0.000812355266067266
35.44,0.0008140050355675
35.45,0.000815657092484545
35.46,0.000817311347664607
35.47,0.000818967712526875
35.48,0.000820626099091615
35.49,0.000822286420002039
35.5,0.000823948588493884
35.51,0.00082561251842439
35.52,0.000827278124292175
35.53,0.000828945321192709
35.54,0.000830614024901477
35.55,0.000832284151777385
35.56,0.000833955618877669
35.57,0.000835628343859418
35.58,0.000837302245091709
35.59,0.000838977241552019
35.6,0.000840653252914825
35.61,0.000842330199503083
35.62,0.000844008002355068
35.63,0.000845686583131333
35.64,0.000847365864224847
35.65,0.000849045768695822
35.66,0.00085072622031368
35.67,0.000852407143509204
35.68,0.000854088463475677
35.69,0.000855770106061082
35.7,0.000857451997849812
35.71,0.000859134066155676
35.72,0.000860816238967277
35.73,0.000862498445048487
35.74,0.000864180613847187
35.75,0.00086586267558586
35.76,0.000867544561197198
35.77,0.000869226202353746
35.78,0.000870907531473675
35.79,0.000872588481737657
35.8,0.000874268987051008
35.81,0.000875948982107411
35.82,0.000877628402322195
35.83,0.00087930718388618
35.84,0.000880985263769785
35.85,0.000882662579699711
35.86,0.000884339070163831
35.87,0.00088601467443139
35.88,0.000887689332570996
35.89,0.000889362985379449
35.9,0.000891035574494325
35.91,0.000892707042312035
35.92,0.000894377331999818
35.93,0.000896046387557581
35.94,0.000897714153729634
35.95,0.000899380576121933
35.96,0.00090104560107207
35.97,0.000902709175760519
35.98,0.0009043712481549
35.99,0.000906031767036963
36,0.000907690682001472
36.01,0.000909347943442995
36.02,0.000911003502547691
36.03,0.000912657311377685
36.04,0.000914309322750051
36.05,0.000915959490337959
36.06,0.000917607768605833
36.07,0.000919254112872303
36.08,0.000920898479259025
36.09,0.00092254082470522
36.1,0.000924181107007871
36.11,0.000925819284762097
36.12,0.000927455317399906
36.13,0.000929089165195407
36.14,0.000930720789256156
36.15,0.000932350151501504
36.16,0.000933977214701009
36.17,0.000935601942467557
36.18,0.000937224299236483
36.19,0.000938844250290005
36.2,0.000940461761733902
36.21,0.000942076800545033
36.22,0.000943689334505726
36.23,0.000945299332260174
36.24,0.000946906763300226
36.25,0.000948511597921309
36.26,0.000950113807309361
36.27,0.000951713363476991
36.28,0.000953310239269922
36.29,0.000954904408388968
36.3,0.00095649584536861
36.31,0.000958084525596536
36.32,0.000959670425309755
36.33,0.000961253521583716
36.34,0.000962833792331419
36.35,0.000964411216337835
36.36,0.000965985773182854
36.37,0.000967557443348643
36.38,0.000969126208119842
36.39,0.000970692049636734
36.4,0.000972254950902807
36.41,0.000973814895733005
36.42,0.000975371868808805
36.43,0.000976925855640132
36.44,0.000978476842596221
36.45,0.000980024816872538
36.46,0.000981569766495882
36.47,0.000983111680368687
36.48,0.000984650548190635
36.49,0.000986186360519836
36.5,0.00098771910876283
36.51,0.000989248785147279
36.52,0.000990775382722187
36.53,0.000992298895405197
36.54,0.000993819317933742
36.55,0.000995336645861933
36.56,0.000996850875584987
36.57,0.000998362004336006
36.58,0.000999870030155003
36.59,0.00100137495193242
36.6,0.00100287676937616
36.61,0.00100437548300292
36.62,0.00100587109417094
36.63,0.00100736360506271
36.64,0.00100885301863696
36.65,0.00101033933872696
36.66,0.00101182256995092
36.67,0.00101330271774402
36.68,0.00101477978834252
36.69,0.00101625378882086
36.7,0.00101772472702577
36.71,0.00101919261163319
36.72,0.00102065745211777
36.73,0.00102211925875295
36.74,0.00102357804261
36.75,0.00102503381558361
36.76,0.00102648659030358
36.77,0.00102793638024012
36.78,0.00102938319964663
36.79,0.00103082706356161
36.8,0.00103226798778489
36.81,0.0010337059889467
36.82,0.00103514108440661
36.83,0.0010365732923362
36.84,0.00103800263166165
36.85,0.00103942912209232
36.86,0.00104085278410893
36.87,0.00104227363894294
36.88,0.00104369170859886
36.89,0.00104510701585681
36.9,0.00104651958422652
36.91,0.00104792943798515
36.92,0.00104933660216733
36.93,0.00105074110254377
36.94,0.00105214296565082
36.95,0.00105354221873888
36.96,0.00105493888981711
36.97,0.00105633300762675
36.98,0.001057724601631
36.99,0.00105911370204115
37,0.00106050033979277
37.01,0.00106188454650769
37.02,0.00106326635457388
37.03,0.00106464579707677
37.04,0.00106602290779867
37.05,0.00106739772124598
37.06,0.00106877027263319
37.07,0.00107014059786315
37.08,0.00107150873354533
37.09,0.00107287471697903
37.1,0.00107423858615896
37.11,0.00107560037975551
37.12,0.00107696013712255
37.13,0.00107831789830237
37.14,0.0010796737039972
37.15,0.00108102759559281
37.16,0.00108237961513646
37.17,0.00108372980532179
37.18,0.0010850782095404
37.19,0.00108642487180843
37.2,0.00108776983677938
37.21,0.00108911314978899
37.22,0.00109045485678638
37.23,0.00109179500436585
37.24,0.00109313363976249
37.25,0.00109447081084291
37.26,0.00109580656607211
37.27,0.00109714095456037
37.28,0.00109847402602814
37.29,0.00109980583080616
37.3,0.00110113641982945
37.31,0.00110246584463358
37.32,0.00110379415736517
37.33,0.00110512141073926
37.34,0.00110644765808654
37.35,0.00110777295330855
37.36,0.00110909735088938
37.37,0.00111042090588198
37.38,0.00111174367391431
37.39,0.00111306571118919
37.4,0.00111438707444356
37.41,0.00111570782100245
37.42,0.0011170280087196
37.43,0.00111834769600594
37.44,0.0011196669418001
37.45,0.00112098580559983
37.46,0.00112230434741112
37.47,0.00112362262779508
37.48,0.00112494070780345
37.49,0.0011262586490226
37.5,0.0011275765135389
37.51,0.00112889436395691
37.52,0.00113021226338994
