"Freq [GHz]","AbsorbanceTM []"
30,0.000209439010483203
30.01,0.000237389160282264
30.02,0.000264971849043949
30.03,0.000292189451255975
30.04,0.000319044337259156
30.05,0.000345538873241735
30.06,0.000371675421175444
30.07,0.000397456338727897
30.08,0.000422883979252053
30.09,0.000447960691734028
30.1,0.000472688820728595
30.11,0.000497070706318992
30.12,0.000521108684062077
30.13,0.000544805084919164
30.14,0.000568162235274339
30.15,0.00059118245681089
30.16,0.000613868066484446
30.17,0.000636221376522195
30.18,0.000658244694290544
30.19,0.000679940322333428
30.2,0.000701310558272494
30.21,0.000722357694754816
30.22,0.000743084019454776
30.23,0.000763491814986583
30.24,0.000783583358872408
30.25,0.000803360923478103
30.26,0.000822826776016417
30.27,0.000841983178440198
30.28,0.000860832387454602
30.29,0.000879376654406738
30.3,0.000897618225322971
30.31,0.000915559340789129
30.32,0.000933202235962938
30.33,0.000950549140490087
30.34,0.000967602278498791
30.35,0.000984363868524296
30.36,0.00100083612345614
30.37,0.00101702125057979
30.38,0.00103292145140366
30.39,0.00104853892174495
30.4,0.00106387585159784
30.41,0.00107893442514972
30.42,0.00109371682068693
30.43,0.00110822521062082
30.44,0.00112246176138819
30.45,0.00113642863343166
30.46,0.00115012798119873
30.47,0.00116356195302336
30.48,0.00117673269116281
30.49,0.0011896423317227
30.5,0.00120229300461494
30.51,0.00121468683354864
30.52,0.00122682593594559
30.53,0.00123871242297158
30.54,0.00125034839941174
30.55,0.00126173596373302
30.56,0.00127287720795477
30.57,0.00128377421768688
30.58,0.00129442907204347
30.59,0.00130484384364271
30.6,0.00131502059854993
30.61,0.00132496139623206
30.62,0.00133466828958129
30.63,0.00134414332481836
30.64,0.00135338854146172
30.65,0.00136240597236914
30.66,0.0013711976435995
30.67,0.00137976557445418
30.68,0.00138811177744214
30.69,0.00139623825817026
30.7,0.00140414701545044
30.71,0.00141184004112216
30.72,0.0014193193201204
30.73,0.00142658683040675
30.74,0.00143364454294992
30.75,0.00144049442168481
30.76,0.00144713842349142
30.77,0.00145357849816086
30.78,0.00145981658839556
30.79,0.00146585462973359
30.8,0.00147169455053486
30.81,0.00147733827198571
30.82,0.00148278770803578
30.83,0.00148804476538134
30.84,0.00149311134343766
30.85,0.00149798933433321
30.86,0.00150268062285375
30.87,0.00150718708642861
30.88,0.00151151059511101
30.89,0.00151565301152745
30.9,0.00151961619092389
30.91,0.00152340198102852
30.92,0.00152701222214724
30.93,0.00153044874705632
30.94,0.00153371338100083
30.95,0.0015368079417083
30.96,0.00153973423929588
30.97,0.00154249407632745
30.98,0.00154508924772867
30.99,0.00154752154080806
31,0.0015497927352065
31.01,0.00155190460288535
31.02,0.00155385890812176
31.03,0.00155565740746511
31.04,0.00155730184973468
31.05,0.00155879397599701
31.06,0.00156013551953826
31.07,0.00156132820584221
31.08,0.00156237375263002
31.09,0.00156327386972477
31.1,0.00156403025914276
31.11,0.00156464461503558
31.12,0.0015651186236707
31.13,0.00156545396341878
31.14,0.00156565230473482
31.15,0.00156571531014404
31.16,0.00156564463423725
31.17,0.00156544192364183
31.18,0.00156510881700656
31.19,0.00156464694500802
31.2,0.00156405793030168
31.21,0.00156334338754027
31.22,0.00156250492332732
31.23,0.00156154413626397
31.24,0.00156046261686038
31.25,0.00155926194759037
31.26,0.00155794370280427
31.27,0.0015565094488198
31.28,0.00155496074380446
31.29,0.00155329913784974
31.3,0.00155152617290044
31.31,0.00154964338278596
31.32,0.00154765229316778
31.33,0.00154555442159343
31.34,0.00154335127741179
31.35,0.00154104436182922
31.36,0.00153863516784869
31.37,0.00153612518031099
31.38,0.00153351587585138
31.39,0.0015308087228928
31.4,0.00152800518166318
31.41,0.00152510670418171
31.42,0.00152211473422548
31.43,0.0015190307073456
31.44,0.00151585605087812
31.45,0.00151259218389155
31.46,0.00150924051723333
31.47,0.00150580245350074
31.48,0.00150227938701952
31.49,0.0014986727038635
31.5,0.00149498378185986
31.51,0.00149121399054797
31.52,0.00148736469120381
31.53,0.00148343723685651
31.54,0.00147943297221786
31.55,0.00147535323375758
31.56,0.00147119934965911
31.57,0.00146697263982676
31.58,0.00146267441588666
31.59,0.00145830598115892
31.6,0.00145386863072816
31.61,0.0014493636513595
31.62,0.00144479232153649
31.63,0.00144015591148761
31.64,0.00143545568313863
31.65,0.00143069289013964
31.66,0.00142586877786877
31.67,0.00142098458341744
31.68,0.00141604153561348
31.69,0.00141104085498345
31.7,0.00140598375384615
31.71,0.00140087143617562
31.72,0.00139570509774423
31.73,0.0013904859260212
31.74,0.00138521510024858
31.75,0.0013798937914129
31.76,0.00137452316222963
31.77,0.00136910436718507
31.78,0.00136363855254296
31.79,0.00135812685631354
31.8,0.00135257040828218
31.81,0.00134697033001596
31.82,0.00134132773487394
31.83,0.00133564372800432
31.84,0.00132991940633653
31.85,0.00132415585863477
31.86,0.00131835416545456
31.87,0.00131251539916821
31.88,0.00130664062400054
31.89,0.00130073089599325
31.9,0.00129478726303633
31.91,0.0012888107648783
31.92,0.00128280243312751
31.93,0.00127676329128557
31.94,0.00127069435469207
31.95,0.0012645966306144
31.96,0.00125847111821364
31.97,0.00125231880855448
31.98,0.00124614068465334
31.99,0.00123993772142439
32,0.00123371088575319
32.01,0.00122746113648065
32.02,0.00122118942440508
32.03,0.001214896692314
32.04,0.00120858387498979
32.05,0.00120225189922807
32.06,0.0011959016838311
32.07,0.00118953413963974
32.08,0.00118315016954784
32.09,0.0011767506684911
32.1,0.00117033652351195
32.11,0.00116390861369819
32.12,0.00115746781028803
32.13,0.00115101497658854
32.14,0.00114455096807287
32.15,0.00113807663236209
32.16,0.00113159280921782
32.17,0.00112510033059265
32.18,0.0011186000206409
32.19,0.00111209269571633
32.2,0.0011055791644039
32.21,0.00109906022753903
32.22,0.00109253667821552
32.23,0.00108600930179681
32.24,0.00107947887593418
32.25,0.0010729461706368
32.26,0.00106641194818791
32.27,0.00105987696325405
32.28,0.001053341962856
32.29,0.00104680768641996
32.3,0.00104027486574532
32.31,0.00103374422507174
32.32,0.00102721648109461
32.33,0.00102069234294178
32.34,0.00101417251225189
32.35,0.00100765768315192
32.36,0.00100114854228361
32.37,0.000994645768842228
32.38,0.000988150034580193
32.39,0.000981662003833095
32.4,0.000975182333556868
32.41,0.000968711673293154
32.42,0.000962250665280329
32.43,0.000955799944379221
32.44,0.000949360138161826
32.45,0.000942931866930286
32.46,0.000936515743677147
32.47,0.000930112374188941
32.48,0.000923722357010548
32.49,0.00091734628349327
32.5,0.000910984737807485
32.51,0.000904638296992721
32.52,0.00089830753093012
32.53,0.000891993002408609
32.54,0.000885695267132336
32.55,0.000879414873758533
32.56,0.000873152363880192
32.57,0.000866908272116662
32.58,0.000860683126071682
32.59,0.00085447744639644
32.6,0.000848291746820773
32.61,0.000842126534141063
32.62,0.000835982308268535
32.63,0.000829859562268664
32.64,0.000823758782357409
32.65,0.000817680447943725
32.66,0.000811625031636787
32.67,0.00080559299933014
32.68,0.000799584810120213
32.69,0.000793600916442982
32.7,0.000787641764052549
32.71,0.000781707792024133
32.72,0.00077579943281525
32.73,0.000769917112288465
32.74,0.000764061249726167
32.75,0.000758232257873193
32.76,0.000752430542935167
32.77,0.000746656504643228
32.78,0.00074091053626657
32.79,0.000735193024611336
32.8,0.00072950435011343
32.81,0.000723844886778791
32.82,0.000718215002311839
32.83,0.000712615058049648
32.84,0.000707045409045648
32.85,0.000701506404104268
32.86,0.000695998385763508
32.87,0.000690521690356549
32.88,0.000685076648052174
32.89,0.00067966358283178
32.9,0.000674282812587523
32.91,0.000668934649095232
32.92,0.000663619398068804
32.93,0.000658337359190408
32.94,0.000653088826125359
32.95,0.000647874086578071
32.96,0.000642693422294616
32.97,0.000637547109093917
32.98,0.000632435416929367
32.99,0.00062735860987817
33,0.000622316946203183
33.01,0.000617310678354688
33.02,0.000612340053035343
33.03,0.000607405311197851
33.04,0.000602506688087701
33.05,0.000597644413299681
33.06,0.000592818710740128
33.07,0.000588029798744061
33.08,0.000583277890035871
33.09,0.0005785631918096
33.1,0.000573885905714722
33.11,0.000569246227946074
33.12,0.000564644349210108
33.13,0.000560080454787504
33.14,0.00055555472458757
33.15,0.000551067333132482
33.16,0.000546618449632219
33.17,0.000542208237987563
33.18,0.000537836856817742
33.19,0.000533504459510836
33.2,0.000529211194280399
33.21,0.000524957204130483
33.22,0.000520742626925585
33.23,0.000516567595452599
33.24,0.000512432237384841
33.25,0.000508336675381749
33.26,0.000504281027075892
33.27,0.000500265405108835
33.28,0.000496289917206294
33.29,0.000492354666145611
33.3,0.000488459749839021
33.31,0.000484605261339977
33.32,0.000480791288906879
33.33,0.000477017915987199
33.34,0.0004732852212882
33.35,0.000469593278788483
33.36,0.000465942157790833
33.37,0.00046233192296008
33.38,0.000458762634286458
33.39,0.00045523434723127
33.4,0.000451747112671153
33.41,0.000448300976965244
33.42,0.0004448959819775
33.43,0.000441532165127101
33.44,0.000438209559411651
33.45,0.000434928193434936
33.46,0.000431688091424576
33.47,0.000428489273311183
33.48,0.000425331754736691
33.49,0.000422215547050464
33.5,0.0004191406574241
33.51,0.000416107088813567
33.52,0.000413114839998396
33.53,0.000410163905682825
33.54,0.000407254276429736
33.55,0.000404385938793994
33.56,0.00040155887525728
33.57,0.000398773064336444
33.58,0.000396028480588617
33.59,0.000393325094643515
33.6,0.000390662873232084
33.61,0.000388041779249448
33.62,0.000385461771748807
33.63,0.000382922805996611
33.64,0.000380424833489768
33.65,0.000377967802019374
33.66,0.000375551655691142
33.67,0.000373176334923508
33.68,0.000370841776530573
33.69,0.000368547913742634
33.7,0.0003662946762093
33.71,0.000364081990075871
33.72,0.00036190977798789
33.73,0.000359777959135776
33.74,0.000357686449282024
33.75,0.000355635160796619
33.76,0.000353624002708441
33.77,0.000351652880706599
33.78,0.000349721697178174
33.79,0.000347830351282274
33.8,0.000345978738916619
33.81,0.000344166752815678
33.82,0.000342394282551672
33.83,0.00034066121455878
33.84,0.000338967432187753
33.85,0.000337312815713586
33.86,0.000335697242413668
33.87,0.000334120586552356
33.88,0.000332582719423824
33.89,0.0003310835094259
33.9,0.00032962282204485
33.91,0.0003282005198747
33.92,0.000326816462747792
33.93,0.000325470507633874
33.94,0.000324162508772874
33.95,0.000322892317677681
33.96,0.000321659783139916
33.97,0.000320464751291549
33.98,0.000319307065665297
33.99,0.000318186567139223
34,0.000317103094055415
34.01,0.000316056482231653
34.02,0.000315046564937527
34.03,0.000314073173017682
34.04,0.000313136134856506
34.05,0.000312235276438533
34.06,0.00031137042135454
34.07,0.000310541390893371
34.08,0.000309748003975985
34.09,0.000308990077300453
34.1,0.000308267425295106
34.11,0.000307579860157947
34.12,0.000306927191936701
34.13,0.000306309228507939
34.14,0.000305725775622379
34.15,0.000305176636961724
34.16,0.000304661614153323
34.17,0.000304180506760066
34.18,0.000303733112410498
34.19,0.000303319226722776
34.2,0.000302938643415684
34.21,0.000302591154289766
34.22,0.000302276549271063
34.23,0.000301994616494827
34.24,0.000301745142217813
34.25,0.000301527910988142
34.26,0.000301342705564478
34.27,0.000301189307002292
34.28,0.000301067494691831
34.29,0.000300977046364226
34.3,0.00030091773810792
34.31,0.000300889344438282
34.32,0.000300891638301715
34.33,0.000300924391126833
34.34,0.00030098737282569
34.35,0.000301080351847283
34.36,0.000301203095191105
34.37,0.000301355368457212
34.38,0.000301536935872981
34.39,0.000301747560281229
34.4,0.000301987003229143
34.41,0.000302255024974829
34.42,0.000302551384506855
34.43,0.000302875839558348
34.44,0.000303228146701473
34.45,0.000303608061291261
34.46,0.00030401533758162
34.47,0.00030444972865995
34.48,0.000304910986557827
34.49,0.000305398862256889
34.5,0.000305913105666189
34.51,0.000306453465739098
34.52,0.000307019690425681
34.53,0.000307611526736751
34.54,0.000308228720776738
34.55,0.000308871017762002
34.56,0.000309538162029055
34.57,0.000310229897111491
34.58,0.000310945965703913
34.59,0.000311686109755072
34.6,0.000312450070442338
34.61,0.000313237588240645
34.62,0.000314048402914269
34.63,0.000314882253564908
34.64,0.000315738878665206
34.65,0.00031661801606353
34.66,0.000317519403017719
34.67,0.000318442776255257
34.68,0.000319387871929533
34.69,0.000320354425732527
34.7,0.000321342172836636
34.71,0.000322350847996034
34.72,0.000323380185525912
34.73,0.000324429919324132
34.74,0.000325499782934946
34.75,0.000326589509570319
34.76,0.000327698832075174
34.77,0.000328827483031202
34.78,0.000329975194744425
34.79,0.000331141699275728
34.8,0.000332326728463617
34.81,0.000333530013938654
34.82,0.000334751287182966
34.83,0.000335990279524023
34.84,0.000337246722176832
34.85,0.000338520346249149
34.86,0.000339810882777458
34.87,0.000341118062770374
34.88,0.000342441617199429
34.89,0.000343781277033273
34.9,0.000345136773292065
34.91,0.000346507837024057
34.92,0.000347894199355658
34.93,0.000349295591515641
34.94,0.000350711744848797
34.95,0.000352142390858012
34.96,0.000353587261199939
34.97,0.000355046087721411
34.98,0.000356518602496636
34.99,0.000358004537838963
35,0.000359503626293223
35.01,0.000361015600724435
35.02,0.000362540194275063
35.03,0.000364077140430741
35.04,0.000365626173024158
35.05,0.000367187026249494
35.06,0.000368759434708599
35.07,0.000370343133418771
35.08,0.000371937857818527
35.09,0.000373543343821114
35.1,0.000375159327802965
35.11,0.000376785546666092
35.12,0.000378421737821877
35.13,0.000380067639220161
35.14,0.000381722989390099
35.15,0.000383387527416068
35.16,0.000385060993030484
35.17,0.000386743126559175
35.18,0.000388433668981669
35.19,0.000390132361958395
35.2,0.000391838947807144
35.21,0.00039355316959111
35.22,0.000395274771059273
35.23,0.000397003496735437
35.24,0.000398739091890032
35.25,0.000400481302581968
35.26,0.000402229875687832
35.27,0.000403984558894122
35.28,0.000405745100714339
35.29,0.000407511250555381
35.3,0.000409282758666807
35.31,0.000411059376223655
35.32,0.000412840855292029
35.33,0.00041462694888228
35.34,0.000416417410956438
35.35,0.000418211996459861
35.36,0.000420010461287146
35.37,0.000421812562363066
35.38,0.000423618057637576
35.39,0.000425426706075926
35.4,0.000427238267715957
35.41,0.000429052503676197
35.42,0.000430869176131776
35.43,0.000432688048396801
35.44,0.000434508884893603
35.45,0.000436331451172944
35.46,0.000438155513955762
35.47,0.000439980841131504
35.48,0.000441807201766453
35.49,0.000443634366141588
35.5,0.000445462105742478
35.51,0.000447290193286709
35.52,0.00044911840275863
35.53,0.000450946509376937
35.54,0.000452774289679714
35.55,0.000454601521447051
35.56,0.000456427983813956
35.57,0.000458253457189306
35.58,0.00046007772337564
35.59,0.000461900565471018
35.6,0.000463721767973824
35.61,0.000465541116736246
35.62,0.000467358399040774
35.63,0.000469173403520262
35.64,0.000470985920271505
35.65,0.000472795740804499
35.66,0.000474602658082524
35.67,0.000476406466501045
35.68,0.000478206961974093
35.69,0.000480003941856433
35.7,0.000481797205013512
35.71,0.000483586551842885
35.72,0.0004853717842076
35.73,0.000487152705560212
35.74,0.000488929120852855
35.75,0.000490700836633162
35.76,0.000492467660992313
35.77,0.000494229403599111
35.78,0.000495985875718752
35.79,0.000497736890227141
35.8,0.00049948226158647
35.81,0.000501221805921381
35.82,0.000502955340950129
35.83,0.000504682686046865
35.84,0.000506403662257626
35.85,0.00050811809228779
35.86,0.000509825800486197
35.87,0.0005115266129192
35.88,0.000513220357354571
35.89,0.000514906863213982
35.9,0.000516585961691907
35.91,0.000518257485674911
35.92,0.000519921269763746
35.93,0.000521577150344843
35.94,0.000523224965494284
35.95,0.000524864555121352
35.96,0.000526495760824752
35.97,0.000528118426026736
35.98,0.000529732395909588
35.99,0.000531337517457597
36,0.000532933639451505
36.01,0.000534520612477607
36.02,0.000536098288906106
36.03,0.000537666522992475
36.04,0.000539225170756441
36.05,0.000540774090094343
36.06,0.000542313140711403
36.07,0.000543842184197785
36.08,0.000545361083975182
36.09,0.000546869705318143
36.1,0.00054836791540458
36.11,0.000549855583254599
36.12,0.000551332579774244
36.13,0.000552798777767816
36.14,0.000554254051925995
36.15,0.000555698278840722
36.16,0.00055713133698565
36.17,0.00055855310676578
36.18,0.000559963470490144
36.19,0.000561362312395786
36.2,0.000562749518616901
36.21,0.000564124977250335
36.22,0.000565488578294637
36.23,0.000566840213698239
36.24,0.000568179777362343
36.25,0.000569507165090188
36.26,0.00057082227468197
36.27,0.000572125005874446
36.28,0.000573415260352261
36.29,0.00057469294175061
36.3,0.000575957955690765
36.31,0.000577210209740997
36.32,0.00057844961345388
36.33,0.000579676078349189
36.34,0.000580889517898586
36.35,0.000582089847596778
36.36,0.00058327698485916
36.37,0.000584450849138274
36.38,0.000585611361832328
36.39,0.000586758446335933
36.4,0.000587892028048764
36.41,0.000589012034328706
36.42,0.000590118394545813
36.43,0.00059121104005877
36.44,0.000592289904223331
36.45,0.000593354922374334
36.46,0.000594406031851347
36.47,0.000595443172007104
36.48,0.000596466284152553
36.49,0.000597475311625129
36.5,0.000598470199762668
36.51,0.000599450895892306
36.52,0.000600417349329141
36.53,0.000601369511389338
36.54,0.000602307335426433
36.55,0.000603230776739738
36.56,0.000604139792645952
36.57,0.000605034342464728
36.58,0.000605914387498907
36.59,0.000606779891062281
36.6,0.000607630818458826
36.61,0.000608467136970492
36.62,0.00060928881588862
36.63,0.000610095826505286
36.64,0.000610888142053789
36.65,0.000611665737805023
36.66,0.000612428591004521
36.67,0.000613176680868466
36.68,0.00061390998859201
36.69,0.000614628497375258
36.7,0.000615332192363205
36.71,0.000616021060692473
36.72,0.000616695091475883
36.73,0.000617354275785575
36.74,0.00061799860666234
36.75,0.000618628079136152
36.76,0.000619242690138577
36.77,0.000619842438608909
36.78,0.000620427325424444
36.79,0.000620997353420027
36.8,0.000621552527348523
36.81,0.00062209285395598
36.82,0.000622618341873715
36.83,0.000623129001707801
36.84,0.000623624845967896
36.85,0.000624105889107551
36.86,0.00062457214749978
36.87,0.000625023639424849
36.88,0.000625460385090149
36.89,0.000625882406608436
36.9,0.000626289727982399
36.91,0.000626682375121201
36.92,0.00062706037583582
36.93,0.000627423759813062
36.94,0.000627772558637885
36.95,0.000628106805742656
36.96,0.000628426536462334
36.97,0.000628731787984727
36.98,0.000629022599348161
36.99,0.000629299011466911
37,0.000629561067093887
37.01,0.000629808810797661
37.02,0.000630042289025856
37.03,0.000630261550030986
37.04,0.00063046664388422
37.05,0.000630657622480713
37.06,0.000630834539527392
37.07,0.000630997450524862
37.08,0.000631146412773398
37.09,0.000631281485363733
37.1,0.00063140272916673
37.11,0.000631510206824393
37.12,0.000631603982729212
37.13,0.000631684123062137
37.14,0.000631750695738953
37.15,0.000631803770413719
37.16,0.000631843418487876
37.17,0.000631869713068611
37.18,0.000631882729015043
37.19,0.000631882542883266
37.2,0.000631869232904592
37.21,0.000631842879050271
37.22,0.000631803562944344
37.23,0.000631751367896061
37.24,0.000631686378893215
37.25,0.000631608682585605
37.26,0.000631518367244288
37.27,0.000631415522806988
37.28,0.000631300240849897
37.29,0.000631172614555142
37.3,0.000631032738724668
37.31,0.000630880709767245
37.32,0.000630716625690142
37.33,0.000630540586073591
37.34,0.000630352692090552
37.35,0.000630153046472404
37.36,0.000629941753506169
37.37,0.000629718919024747
37.38,0.000629484650396805
37.39,0.000629239056531561
37.4,0.000628982247825927
37.41,0.000628714336212699
37.42,0.00062843543510005
37.43,0.000628145659392065
37.44,0.00062784512545111
37.45,0.000627533951131576
37.46,0.000627212255708831
37.47,0.000626880159933507
37.48,0.000626537785960224
37.49,0.000626185257373457
37.5,0.000625822699157008
37.51,0.000625450237711322
37.52,0.000625068000820517
